nm; %T
900.000000; 120.727500
899.000000; 111.525200
898.000000; 107.045500
897.000000; 117.065700
896.000000; 116.672300
895.000000; 118.653300
894.000000; 117.028300
893.000000; 112.461700
892.000000; 117.166800
891.000000; 110.568400
890.000000; 112.905900
889.000000; 117.697900
888.000000; 114.389400
887.000000; 114.028900
886.000000; 111.113400
885.000000; 113.588100
884.000000; 117.871800
883.000000; 114.809900
882.000000; 113.080200
881.000000; 114.525400
880.000000; 115.372700
879.000000; 116.581100
878.000000; 113.049300
877.000000; 117.054300
876.000000; 115.878700
875.000000; 116.591900
874.000000; 116.780400
873.000000; 117.285200
872.000000; 116.602300
871.000000; 116.617400
870.000000; 116.902300
869.000000; 117.319200
868.000000; 117.600300
867.000000; 117.772800
866.000000; 118.001800
865.000000; 116.650100
864.000000; 116.941300
863.000000; 118.012800
862.000000; 117.627500
861.000000; 118.436500
860.000000; 119.909000
859.000000; 119.317900
858.000000; 118.045500
857.000000; 118.443500
856.000000; 118.758900
855.000000; 118.624200
854.000000; 118.782000
853.000000; 118.836900
852.000000; 119.303800
851.000000; 118.992400
850.000000; 119.315200
849.000000; 119.334200
848.000000; 119.489200
847.000000; 119.294300
846.000000; 119.674700
845.000000; 119.686100
844.000000; 119.751300
843.000000; 120.168200
842.000000; 119.883400
841.000000; 120.368100
840.000000; 120.301800
839.000000; 120.326400
838.000000; 120.230100
837.000000; 120.407000
836.000000; 120.627300
835.000000; 120.464600
834.000000; 120.337800
833.000000; 120.717300
832.000000; 120.789500
831.000000; 120.773400
830.000000; 120.659500
829.000000; 120.788900
828.000000; 120.818200
827.000000; 120.698100
826.000000; 120.966400
825.000000; 120.660900
824.000000; 120.792500
823.000000; 120.790900
822.000000; 120.725000
821.000000; 120.814500
820.000000; 120.903500
819.000000; 120.853700
818.000000; 120.761800
817.000000; 120.823800
816.000000; 120.936000
815.000000; 120.905200
814.000000; 120.973800
813.000000; 121.146600
812.000000; 121.036100
811.000000; 121.062000
810.000000; 121.134800
809.000000; 120.925300
808.000000; 120.833900
807.000000; 120.808200
806.000000; 120.731600
805.000000; 120.818000
804.000000; 120.907400
803.000000; 120.794500
802.000000; 120.717200
801.000000; 120.583000
800.000000; 120.601700
799.000000; 120.647000
798.000000; 120.464500
797.000000; 120.479300
796.000000; 120.400800
795.000000; 120.155700
794.000000; 120.299900
793.000000; 120.370500
792.000000; 120.263200
791.000000; 120.185300
790.000000; 120.296300
789.000000; 120.186000
788.000000; 120.176800
787.000000; 120.217100
786.000000; 119.962500
785.000000; 119.951200
784.000000; 119.989600
783.000000; 119.964400
782.000000; 119.771900
781.000000; 119.850700
780.000000; 120.059000
779.000000; 119.912500
778.000000; 119.912100
777.000000; 119.878300
776.000000; 119.722800
775.000000; 119.831200
774.000000; 119.868200
773.000000; 119.710300
772.000000; 119.657800
771.000000; 119.570000
770.000000; 119.319700
769.000000; 119.403000
768.000000; 119.490900
767.000000; 119.347300
766.000000; 119.116800
765.000000; 119.066100
764.000000; 119.181100
763.000000; 119.111300
762.000000; 119.079600
761.000000; 119.076600
760.000000; 118.913500
759.000000; 118.934000
758.000000; 118.896100
757.000000; 118.881100
756.000000; 118.784800
755.000000; 118.637800
754.000000; 118.666000
753.000000; 118.715900
752.000000; 118.553200
751.000000; 118.519600
750.000000; 118.495900
749.000000; 118.389200
748.000000; 118.453800
747.000000; 118.436700
746.000000; 118.366200
745.000000; 118.372000
744.000000; 118.329800
743.000000; 118.234900
742.000000; 118.215100
741.000000; 118.151200
740.000000; 118.145700
739.000000; 118.133300
738.000000; 118.049900
737.000000; 117.857500
736.000000; 117.923100
735.000000; 117.920100
734.000000; 117.882700
733.000000; 117.823900
732.000000; 117.841000
731.000000; 117.685300
730.000000; 117.737600
729.000000; 117.680500
728.000000; 117.655200
727.000000; 117.588600
726.000000; 117.575500
725.000000; 117.577000
724.000000; 117.483000
723.000000; 117.403800
722.000000; 117.316100
721.000000; 117.372500
720.000000; 117.375500
719.000000; 117.256000
718.000000; 117.300900
717.000000; 117.223000
716.000000; 117.257400
715.000000; 117.278300
714.000000; 117.173000
713.000000; 117.129000
712.000000; 117.152600
711.000000; 117.034300
710.000000; 117.000300
709.000000; 117.117100
708.000000; 116.857400
707.000000; 116.811600
706.000000; 116.763800
705.000000; 116.864800
704.000000; 116.841700
703.000000; 116.753900
702.000000; 116.802400
701.000000; 116.732600
700.000000; 116.660300
699.000000; 116.723500
698.000000; 116.588800
697.000000; 116.579400
696.000000; 116.572500
695.000000; 116.546300
694.000000; 116.528300
693.000000; 116.511300
692.000000; 116.523800
691.000000; 116.408800
690.000000; 116.582400
689.000000; 116.588100
688.000000; 116.657700
687.000000; 116.578300
686.000000; 116.594400
685.000000; 116.571500
684.000000; 116.504000
683.000000; 116.437200
682.000000; 116.429400
681.000000; 116.388600
680.000000; 116.408900
679.000000; 116.364800
678.000000; 116.327800
677.000000; 116.227400
676.000000; 116.220500
675.000000; 116.131200
674.000000; 116.198200
673.000000; 116.228400
672.000000; 116.061100
671.000000; 116.071900
670.000000; 116.061800
669.000000; 116.065600
668.000000; 116.059600
667.000000; 116.089500
666.000000; 116.059600
665.000000; 116.032000
664.000000; 116.014800
663.000000; 115.921400
662.000000; 115.913600
661.000000; 115.953700
660.000000; 115.962800
659.000000; 115.967800
658.000000; 116.007200
657.000000; 115.870200
656.000000; 115.877400
655.000000; 115.858400
654.000000; 115.936600
653.000000; 115.825400
652.000000; 115.796300
651.000000; 115.799100
650.000000; 115.667500
649.000000; 115.782200
648.000000; 115.634900
647.000000; 115.677300
646.000000; 115.597100
645.000000; 115.749300
644.000000; 115.654600
643.000000; 115.567600
642.000000; 115.616800
641.000000; 115.575300
640.000000; 115.570400
639.000000; 115.616600
638.000000; 115.626300
637.000000; 115.647400
636.000000; 115.594600
635.000000; 115.455600
634.000000; 115.565700
633.000000; 115.507000
632.000000; 115.516400
631.000000; 115.424500
630.000000; 115.426800
629.000000; 115.393000
628.000000; 115.491800
627.000000; 115.491800
626.000000; 115.438700
625.000000; 115.354200
624.000000; 115.415700
623.000000; 115.402200
622.000000; 115.320200
621.000000; 115.341300
620.000000; 115.334500
619.000000; 115.335700
618.000000; 115.309400
617.000000; 115.314900
616.000000; 115.287200
615.000000; 115.244000
614.000000; 115.231200
613.000000; 115.290300
612.000000; 115.242500
611.000000; 115.266600
610.000000; 115.239900
609.000000; 115.188200
608.000000; 115.200400
607.000000; 115.221700
606.000000; 115.236000
605.000000; 115.180700
604.000000; 115.137600
603.000000; 115.184200
602.000000; 115.183000
601.000000; 115.193100
600.000000; 115.154500
599.000000; 115.097500
598.000000; 115.071900
597.000000; 115.119500
596.000000; 115.177600
595.000000; 115.163500
594.000000; 115.058200
593.000000; 115.124700
592.000000; 115.137900
591.000000; 115.158200
590.000000; 115.135400
589.000000; 115.162200
588.000000; 115.090800
587.000000; 115.051100
586.000000; 115.031200
585.000000; 115.056800
584.000000; 115.152200
583.000000; 115.128900
582.000000; 115.146100
581.000000; 115.118700
580.000000; 115.072300
579.000000; 115.056500
578.000000; 115.097900
577.000000; 115.076800
576.000000; 115.105200
575.000000; 115.091600
574.000000; 115.117100
573.000000; 115.060700
572.000000; 115.054900
571.000000; 115.048200
570.000000; 115.076700
569.000000; 115.098900
568.000000; 115.084400
567.000000; 115.007400
566.000000; 115.062300
565.000000; 115.028400
564.000000; 115.053700
563.000000; 115.066400
562.000000; 115.178000
561.000000; 115.270200
560.000000; 115.300100
559.000000; 115.298200
558.000000; 115.301700
557.000000; 115.389600
556.000000; 115.360500
555.000000; 115.352300
554.000000; 115.351000
553.000000; 115.349400
552.000000; 115.345800
551.000000; 115.335000
550.000000; 115.311700
549.000000; 115.340100
548.000000; 115.377300
547.000000; 115.398000
546.000000; 115.348500
545.000000; 115.370000
544.000000; 115.425200
543.000000; 115.463600
542.000000; 115.497000
541.000000; 115.520600
540.000000; 115.516300
539.000000; 115.543100
538.000000; 115.543500
537.000000; 115.568100
536.000000; 115.590500
535.000000; 115.592100
534.000000; 115.610600
533.000000; 115.635300
532.000000; 115.712200
531.000000; 115.725300
530.000000; 115.732200
529.000000; 115.766100
528.000000; 115.803100
527.000000; 115.824300
526.000000; 115.839900
525.000000; 115.878600
524.000000; 115.903600
523.000000; 115.914500
522.000000; 115.917300
521.000000; 115.925600
520.000000; 115.944200
519.000000; 115.925600
518.000000; 115.916500
517.000000; 115.881500
516.000000; 115.815000
515.000000; 115.783000
514.000000; 115.723000
513.000000; 115.576600
512.000000; 115.421900
511.000000; 115.280000
510.000000; 115.105900
509.000000; 114.943700
508.000000; 114.774500
507.000000; 114.561100
506.000000; 114.359800
505.000000; 114.199100
504.000000; 114.033300
503.000000; 113.899200
502.000000; 113.760600
501.000000; 113.681200
500.000000; 113.639600
499.000000; 113.593000
498.000000; 113.610100
497.000000; 113.619500
496.000000; 113.671200
495.000000; 113.734500
494.000000; 113.821500
493.000000; 113.915500
492.000000; 113.971200
491.000000; 114.015700
490.000000; 114.056900
489.000000; 114.146900
488.000000; 114.270400
487.000000; 114.405100
486.000000; 114.480600
485.000000; 114.560400
484.000000; 114.750900
483.000000; 114.992400
482.000000; 115.270500
481.000000; 115.543800
480.000000; 115.693900
479.000000; 115.678200
478.000000; 115.570500
477.000000; 115.488300
476.000000; 115.442100
475.000000; 115.463400
474.000000; 115.430200
473.000000; 115.402000
472.000000; 115.367900
471.000000; 115.337700
470.000000; 115.287300
469.000000; 115.236800
468.000000; 115.175000
467.000000; 115.076800
466.000000; 114.968100
465.000000; 114.803900
464.000000; 114.707900
463.000000; 114.529000
462.000000; 114.390900
461.000000; 114.218600
460.000000; 114.153900
459.000000; 114.040700
458.000000; 113.944300
457.000000; 113.891600
456.000000; 113.851300
455.000000; 113.874300
454.000000; 113.892700
453.000000; 113.894400
452.000000; 113.926400
451.000000; 113.912600
450.000000; 113.906300
449.000000; 113.945600
448.000000; 113.992700
447.000000; 113.938100
446.000000; 113.922900
445.000000; 114.044400
444.000000; 114.293900
443.000000; 114.416500
442.000000; 114.422800
441.000000; 114.361900
440.000000; 114.294900
439.000000; 114.271700
438.000000; 114.304900
437.000000; 114.259200
436.000000; 114.310500
435.000000; 114.293600
434.000000; 114.187000
433.000000; 114.144700
432.000000; 114.155400
431.000000; 114.158600
430.000000; 114.054700
429.000000; 114.060900
428.000000; 113.955800
427.000000; 113.994500
426.000000; 113.970900
425.000000; 113.920500
424.000000; 113.892000
423.000000; 113.899400
422.000000; 113.764900
421.000000; 113.724600
420.000000; 113.619600
419.000000; 113.572800
418.000000; 113.531900
417.000000; 113.377600
416.000000; 113.281800
415.000000; 113.062500
414.000000; 112.986100
413.000000; 112.805900
412.000000; 112.548500
411.000000; 112.438900
410.000000; 112.088700
409.000000; 111.904400
408.000000; 111.662600
407.000000; 111.327600
406.000000; 110.998200
405.000000; 110.766200
404.000000; 110.478500
403.000000; 110.195900
402.000000; 109.982400
401.000000; 109.702700
400.000000; 109.292200
399.000000; 109.071000
398.000000; 108.989300
397.000000; 108.692200
396.000000; 108.483900
395.000000; 108.226700
394.000000; 108.057600
393.000000; 107.805200
392.000000; 107.704400
391.000000; 107.574500
390.000000; 107.348500
389.000000; 107.229900
388.000000; 107.193300
387.000000; 107.015700
386.000000; 106.959900
385.000000; 106.876600
384.000000; 106.792500
383.000000; 106.676500
382.000000; 106.453000
381.000000; 106.581700
380.000000; 106.533700
379.000000; 106.948900
378.000000; 108.434000
377.000000; 107.912000
376.000000; 107.715800
375.000000; 107.650500
374.000000; 107.333000
373.000000; 107.186600
372.000000; 106.967000
371.000000; 106.815600
370.000000; 106.636700
369.000000; 106.581200
368.000000; 106.371400
367.000000; 106.246100
366.000000; 106.225100
365.000000; 106.070700
364.000000; 106.064200
363.000000; 106.012400
362.000000; 105.776100
361.000000; 105.741000
360.000000; 105.726300
359.000000; 105.569100
358.000000; 105.530900
357.000000; 105.467700
356.000000; 105.490000
355.000000; 105.398300
354.000000; 105.313000
353.000000; 105.166200
352.000000; 105.242000
351.000000; 105.199800
350.000000; 105.065000
349.000000; 105.008900
348.000000; 105.019300
347.000000; 104.952200
346.000000; 104.788300
345.000000; 104.801700
344.000000; 104.693100
343.000000; 104.756100
342.000000; 104.746800
341.000000; 104.643100
340.000000; 104.610100
339.000000; 104.709200
338.000000; 104.470000
337.000000; 104.490900
336.000000; 104.522800
335.000000; 104.327900
334.000000; 104.252200
333.000000; 104.315200
332.000000; 104.182000
331.000000; 104.116900
330.000000; 104.091900
329.000000; 103.936000
328.000000; 103.745600
327.000000; 103.685900
326.000000; 103.850100
325.000000; 103.803900
