nm; %T
900.000000; 114.434600
899.000000; 109.482000
898.000000; 115.835600
897.000000; 109.279600
896.000000; 115.106000
895.000000; 115.192800
894.000000; 112.627000
893.000000; 112.870100
892.000000; 116.640300
891.000000; 114.906700
890.000000; 114.732200
889.000000; 113.337600
888.000000; 117.499100
887.000000; 115.160500
886.000000; 114.665700
885.000000; 115.420700
884.000000; 117.265300
883.000000; 117.138700
882.000000; 115.629800
881.000000; 117.669600
880.000000; 115.980600
879.000000; 116.446900
878.000000; 116.109200
877.000000; 115.674500
876.000000; 114.906800
875.000000; 115.514700
874.000000; 115.526100
873.000000; 117.597400
872.000000; 118.035700
871.000000; 118.573100
870.000000; 117.192400
869.000000; 116.972100
868.000000; 117.928000
867.000000; 118.664800
866.000000; 117.835400
865.000000; 117.616700
864.000000; 117.981600
863.000000; 117.168700
862.000000; 117.846300
861.000000; 118.802700
860.000000; 119.231800
859.000000; 118.665900
858.000000; 118.562800
857.000000; 118.811100
856.000000; 118.657300
855.000000; 118.227600
854.000000; 118.090000
853.000000; 118.762800
852.000000; 118.811300
851.000000; 118.670200
850.000000; 119.097700
849.000000; 119.388300
848.000000; 119.633700
847.000000; 119.734300
846.000000; 119.371900
845.000000; 119.436500
844.000000; 120.106300
843.000000; 119.678000
842.000000; 119.721900
841.000000; 120.150800
840.000000; 120.465000
839.000000; 120.545000
838.000000; 120.249700
837.000000; 120.089900
836.000000; 120.513800
835.000000; 120.319100
834.000000; 120.400800
833.000000; 120.449900
832.000000; 120.525500
831.000000; 120.633300
830.000000; 120.690400
829.000000; 120.863200
828.000000; 121.010900
827.000000; 120.999400
826.000000; 120.892200
825.000000; 120.690900
824.000000; 120.811600
823.000000; 120.795100
822.000000; 120.795500
821.000000; 120.870000
820.000000; 120.706500
819.000000; 121.029800
818.000000; 121.298200
817.000000; 121.006000
816.000000; 120.872500
815.000000; 120.984600
814.000000; 121.119200
813.000000; 121.253900
812.000000; 121.221300
811.000000; 121.081600
810.000000; 120.884400
809.000000; 120.833900
808.000000; 120.851300
807.000000; 120.846400
806.000000; 120.744900
805.000000; 120.775200
804.000000; 120.567500
803.000000; 120.677700
802.000000; 120.839700
801.000000; 120.692100
800.000000; 120.640300
799.000000; 120.586900
798.000000; 120.456000
797.000000; 120.519500
796.000000; 120.556700
795.000000; 120.671200
794.000000; 120.714000
793.000000; 120.566000
792.000000; 120.347200
791.000000; 120.315000
790.000000; 120.386800
789.000000; 120.238600
788.000000; 120.296500
787.000000; 120.388900
786.000000; 120.180400
785.000000; 120.022000
784.000000; 119.988700
783.000000; 119.857600
782.000000; 119.766800
781.000000; 119.957900
780.000000; 120.056500
779.000000; 119.857500
778.000000; 119.693300
777.000000; 119.688300
776.000000; 119.873500
775.000000; 119.852300
774.000000; 119.611400
773.000000; 119.503000
772.000000; 119.532700
771.000000; 119.527200
770.000000; 119.384700
769.000000; 119.312400
768.000000; 119.305700
767.000000; 119.409100
766.000000; 119.498800
765.000000; 119.405900
764.000000; 119.299800
763.000000; 119.301100
762.000000; 119.200000
761.000000; 119.102300
760.000000; 119.001200
759.000000; 118.901800
758.000000; 118.779000
757.000000; 118.854900
756.000000; 118.756000
755.000000; 118.661800
754.000000; 118.765200
753.000000; 118.767000
752.000000; 118.677200
751.000000; 118.729800
750.000000; 118.769600
749.000000; 118.639300
748.000000; 118.594100
747.000000; 118.479300
746.000000; 118.416800
745.000000; 118.448200
744.000000; 118.352000
743.000000; 118.238200
742.000000; 118.146600
741.000000; 118.247400
740.000000; 118.168400
739.000000; 118.121500
738.000000; 118.075900
737.000000; 117.885600
736.000000; 117.759900
735.000000; 117.916800
734.000000; 117.836200
733.000000; 117.960700
732.000000; 117.896600
731.000000; 117.782600
730.000000; 117.761400
729.000000; 117.649300
728.000000; 117.611000
727.000000; 117.605300
726.000000; 117.514200
725.000000; 117.587300
724.000000; 117.590300
723.000000; 117.444000
722.000000; 117.376000
721.000000; 117.398800
720.000000; 117.373800
719.000000; 117.249800
718.000000; 117.217600
717.000000; 117.275600
716.000000; 117.208500
715.000000; 117.017400
714.000000; 117.159200
713.000000; 116.885600
712.000000; 117.153300
711.000000; 117.026000
710.000000; 117.053700
709.000000; 117.026300
708.000000; 116.991000
707.000000; 116.908900
706.000000; 116.906900
705.000000; 116.943200
704.000000; 116.978000
703.000000; 116.873300
702.000000; 116.706200
701.000000; 116.611600
700.000000; 116.684800
699.000000; 116.698600
698.000000; 116.579900
697.000000; 116.595200
696.000000; 116.733000
695.000000; 116.634300
694.000000; 116.512800
693.000000; 116.550500
692.000000; 116.510300
691.000000; 116.605400
690.000000; 116.449100
689.000000; 116.545600
688.000000; 116.585600
687.000000; 116.643200
686.000000; 116.466500
685.000000; 116.595300
684.000000; 116.469600
683.000000; 116.370400
682.000000; 116.459400
681.000000; 116.422400
680.000000; 116.412700
679.000000; 116.435000
678.000000; 116.374100
677.000000; 116.329700
676.000000; 116.287100
675.000000; 116.222800
674.000000; 116.222900
673.000000; 116.219900
672.000000; 116.147900
671.000000; 116.091800
670.000000; 116.133600
669.000000; 116.139800
668.000000; 116.074800
667.000000; 116.094800
666.000000; 116.043700
665.000000; 116.047400
664.000000; 116.047100
663.000000; 116.045200
662.000000; 115.995600
661.000000; 115.979800
660.000000; 115.900500
659.000000; 115.922100
658.000000; 115.935700
657.000000; 115.930700
656.000000; 115.733400
655.000000; 115.858900
654.000000; 115.780800
653.000000; 115.806900
652.000000; 115.743700
651.000000; 115.740900
650.000000; 115.655300
649.000000; 115.691900
648.000000; 115.756300
647.000000; 115.659900
646.000000; 115.654900
645.000000; 115.642400
644.000000; 115.633500
643.000000; 115.536200
642.000000; 115.493700
641.000000; 115.541200
640.000000; 115.494100
639.000000; 115.436600
638.000000; 115.514400
637.000000; 115.487100
636.000000; 115.591100
635.000000; 115.526800
634.000000; 115.455300
633.000000; 115.487400
632.000000; 115.475500
631.000000; 115.514300
630.000000; 115.509500
629.000000; 115.458500
628.000000; 115.386600
627.000000; 115.285800
626.000000; 115.346900
625.000000; 115.447800
624.000000; 115.336600
623.000000; 115.391400
622.000000; 115.328000
621.000000; 115.290600
620.000000; 115.278600
619.000000; 115.346600
618.000000; 115.374500
617.000000; 115.329600
616.000000; 115.269100
615.000000; 115.264500
614.000000; 115.223700
613.000000; 115.267300
612.000000; 115.266400
611.000000; 115.191000
610.000000; 115.210600
609.000000; 115.219900
608.000000; 115.243000
607.000000; 115.148700
606.000000; 115.150800
605.000000; 115.180100
604.000000; 115.330100
603.000000; 115.183900
602.000000; 115.247900
601.000000; 115.220300
600.000000; 115.135300
599.000000; 115.108500
598.000000; 115.153600
597.000000; 115.104200
596.000000; 115.076900
595.000000; 115.136700
594.000000; 115.198600
593.000000; 115.075300
592.000000; 115.083400
591.000000; 115.104600
590.000000; 115.112200
589.000000; 115.087900
588.000000; 115.107300
587.000000; 115.101500
586.000000; 115.114500
585.000000; 115.104800
584.000000; 115.076600
583.000000; 115.123400
582.000000; 115.109000
581.000000; 115.085800
580.000000; 115.119000
579.000000; 115.067800
578.000000; 115.096900
577.000000; 115.070900
576.000000; 115.080000
575.000000; 115.076000
574.000000; 115.051100
573.000000; 115.068800
572.000000; 115.104900
571.000000; 115.106200
570.000000; 115.054000
569.000000; 115.075800
568.000000; 115.037500
567.000000; 115.054100
566.000000; 115.011900
565.000000; 115.031700
564.000000; 115.024900
563.000000; 114.999000
562.000000; 115.180100
561.000000; 115.310900
560.000000; 115.284700
559.000000; 115.337600
558.000000; 115.357400
557.000000; 115.295900
556.000000; 115.305000
555.000000; 115.322300
554.000000; 115.374500
553.000000; 115.335900
552.000000; 115.340100
551.000000; 115.346200
550.000000; 115.359500
549.000000; 115.358900
548.000000; 115.373400
547.000000; 115.400600
546.000000; 115.429900
545.000000; 115.420300
544.000000; 115.446800
543.000000; 115.470000
542.000000; 115.443800
541.000000; 115.478000
540.000000; 115.524800
539.000000; 115.496400
538.000000; 115.505600
537.000000; 115.528600
536.000000; 115.588800
535.000000; 115.629600
534.000000; 115.606400
533.000000; 115.624500
532.000000; 115.675900
531.000000; 115.671300
530.000000; 115.682800
529.000000; 115.758700
528.000000; 115.813100
527.000000; 115.845600
526.000000; 115.876500
525.000000; 115.906800
524.000000; 115.917300
523.000000; 115.931000
522.000000; 115.919600
521.000000; 115.907500
520.000000; 115.908400
519.000000; 115.907200
518.000000; 115.899600
517.000000; 115.877700
516.000000; 115.812000
515.000000; 115.744100
514.000000; 115.661300
513.000000; 115.560400
512.000000; 115.430100
511.000000; 115.281300
510.000000; 115.144800
509.000000; 114.949200
508.000000; 114.738900
507.000000; 114.558600
506.000000; 114.382000
505.000000; 114.168800
504.000000; 114.017900
503.000000; 113.905000
502.000000; 113.783700
501.000000; 113.695000
500.000000; 113.655000
499.000000; 113.629400
498.000000; 113.637700
497.000000; 113.607300
496.000000; 113.649900
495.000000; 113.710800
494.000000; 113.755400
493.000000; 113.873600
492.000000; 113.942300
491.000000; 114.008100
490.000000; 114.117900
489.000000; 114.222700
488.000000; 114.331700
487.000000; 114.410600
486.000000; 114.513900
485.000000; 114.593500
484.000000; 114.717700
483.000000; 114.949200
482.000000; 115.239000
481.000000; 115.457500
480.000000; 115.619400
479.000000; 115.649600
478.000000; 115.536800
477.000000; 115.451800
476.000000; 115.406100
475.000000; 115.420200
474.000000; 115.429900
473.000000; 115.404400
472.000000; 115.378700
471.000000; 115.334400
470.000000; 115.279100
469.000000; 115.176700
468.000000; 115.145500
467.000000; 115.062800
466.000000; 114.905300
465.000000; 114.776800
464.000000; 114.651700
463.000000; 114.524300
462.000000; 114.359900
461.000000; 114.194000
460.000000; 114.099300
459.000000; 113.994300
458.000000; 113.921900
457.000000; 113.881700
456.000000; 113.904300
455.000000; 113.935400
454.000000; 113.870700
453.000000; 113.868100
452.000000; 113.858800
451.000000; 113.905700
450.000000; 113.946400
449.000000; 113.918900
448.000000; 113.916100
447.000000; 113.932800
446.000000; 113.922900
445.000000; 114.037800
444.000000; 114.267200
443.000000; 114.371900
442.000000; 114.408800
441.000000; 114.375700
440.000000; 114.374700
439.000000; 114.328700
438.000000; 114.356400
437.000000; 114.300800
436.000000; 114.257200
435.000000; 114.173600
434.000000; 114.216800
433.000000; 114.178600
432.000000; 114.142000
431.000000; 114.228900
430.000000; 114.132600
429.000000; 114.020800
428.000000; 114.031500
427.000000; 114.044200
426.000000; 114.001500
425.000000; 113.960100
424.000000; 113.852500
423.000000; 113.884800
422.000000; 113.830000
421.000000; 113.703400
420.000000; 113.723400
419.000000; 113.668000
418.000000; 113.538800
417.000000; 113.387300
416.000000; 113.319300
415.000000; 113.131600
414.000000; 113.033700
413.000000; 112.737600
412.000000; 112.641800
411.000000; 112.315200
410.000000; 112.173100
409.000000; 111.901000
408.000000; 111.685800
407.000000; 111.425100
406.000000; 111.063400
405.000000; 110.756700
404.000000; 110.507200
403.000000; 110.247000
402.000000; 110.035200
401.000000; 109.655400
400.000000; 109.359500
399.000000; 109.148600
398.000000; 108.851700
397.000000; 108.587700
396.000000; 108.486900
395.000000; 108.312300
394.000000; 108.136800
393.000000; 107.796900
392.000000; 107.652200
391.000000; 107.585600
390.000000; 107.422400
389.000000; 107.345600
388.000000; 107.198900
387.000000; 107.031300
386.000000; 106.947500
385.000000; 106.808900
384.000000; 106.767700
383.000000; 106.582900
382.000000; 106.703100
381.000000; 106.627000
380.000000; 106.538400
379.000000; 106.938500
378.000000; 108.134500
377.000000; 108.074000
376.000000; 107.789200
375.000000; 107.611100
374.000000; 107.300800
373.000000; 106.918400
372.000000; 106.829300
371.000000; 106.752200
370.000000; 106.585100
369.000000; 106.300500
368.000000; 106.451500
367.000000; 106.349800
366.000000; 106.220300
365.000000; 106.090000
364.000000; 105.921600
363.000000; 105.924100
362.000000; 105.847900
361.000000; 105.742100
360.000000; 105.633900
359.000000; 105.620400
358.000000; 105.611300
357.000000; 105.562100
356.000000; 105.444400
355.000000; 105.555200
354.000000; 105.333400
353.000000; 105.250500
352.000000; 105.240800
351.000000; 105.220800
350.000000; 105.093800
349.000000; 105.057400
348.000000; 104.955700
347.000000; 104.955500
346.000000; 104.944200
345.000000; 104.890400
344.000000; 104.915600
343.000000; 104.659600
342.000000; 104.681500
341.000000; 104.584600
340.000000; 104.634700
339.000000; 104.565700
338.000000; 104.574800
337.000000; 104.519800
336.000000; 104.491900
335.000000; 104.351100
334.000000; 104.357300
333.000000; 104.180200
332.000000; 104.131800
331.000000; 104.135800
330.000000; 104.095000
329.000000; 103.989500
328.000000; 103.851800
327.000000; 103.844800
326.000000; 103.695400
325.000000; 103.769800
