PE UV       SUBTECH     SPECTRUM    ASCII       PEDS        4.00        
   -1
J11.Sample.Raw.asc
18/05/25
16:20:28.00
18/05/25
16:20:28.00
Administrator
longitudinal
325.000000
1
Lambda 850
850L1710193
PerkinElmer UV WinLab 6.4.0.973 / 2.02.06 Lambda 800 UV/VIS, Jan 28 2016 16:58:34

0
0
2
0
0
UV/VIS
1
1
1
RBeamAtt,SBeamAtt,60mm sphere
0
0
0
0
Fix
 
0
0.16
0
0
0
 
 
 
0
 
0
319.2
0
Front
100
 
S:100 R:100
 
0
0
0
 
0
 
 
 
0
 
 
0
0
0
0
0
 
 
 
 
0
0


0
0
#HDR
-1
-1
#GR
nm
%T
1.0
0.0
900.000000
-1.000000
576
8
70.032922
0.011252
#DATA
900.000000	68.602966
899.000000	66.035409
898.000000	67.627607
897.000000	68.896770
896.000000	70.032922
895.000000	68.469331
894.000000	67.157363
893.000000	65.124893
892.000000	68.361091
891.000000	67.474768
890.000000	64.469874
889.000000	64.931141
888.000000	67.303702
887.000000	64.741069
886.000000	68.440399
885.000000	67.173684
884.000000	65.205210
883.000000	65.589087
882.000000	68.211539
881.000000	65.500956
880.000000	66.495076
879.000000	65.022093
878.000000	65.950014
877.000000	66.389306
876.000000	66.479234
875.000000	65.676814
874.000000	66.465188
873.000000	65.721148
872.000000	66.110928
871.000000	66.221729
870.000000	66.151343
869.000000	65.434452
868.000000	65.608982
867.000000	65.444245
866.000000	64.578616
865.000000	64.720495
864.000000	65.544203
863.000000	65.293697
862.000000	64.547108
861.000000	64.436183
860.000000	64.050829
859.000000	64.231022
858.000000	64.091609
857.000000	64.416524
856.000000	63.982083
855.000000	63.937248
854.000000	63.888581
853.000000	63.610616
852.000000	63.351033
851.000000	63.399547
850.000000	63.234934
849.000000	63.508366
848.000000	63.372892
847.000000	63.359548
846.000000	62.872413
845.000000	62.652598
844.000000	62.615964
843.000000	62.346994
842.000000	62.250440
841.000000	62.336319
840.000000	62.639103
839.000000	61.939730
838.000000	61.572548
837.000000	61.770119
836.000000	61.807779
835.000000	61.372470
834.000000	61.422497
833.000000	61.534084
832.000000	60.858402
831.000000	61.041902
830.000000	60.890695
829.000000	60.686372
828.000000	60.621183
827.000000	60.575643
826.000000	60.502088
825.000000	60.273522
824.000000	60.175455
823.000000	60.197516
822.000000	60.065671
821.000000	59.775265
820.000000	59.642693
819.000000	59.757809
818.000000	59.428370
817.000000	59.303282
816.000000	59.297863
815.000000	59.207692
814.000000	59.140030
813.000000	58.900703
812.000000	58.870228
811.000000	58.697947
810.000000	58.496009
809.000000	58.395723
808.000000	58.247104
807.000000	58.354324
806.000000	58.309845
805.000000	58.121491
804.000000	57.876136
803.000000	57.802700
802.000000	57.698016
801.000000	57.567330
800.000000	57.650793
799.000000	57.541832
798.000000	57.360441
797.000000	57.140256
796.000000	57.159982
795.000000	57.062473
794.000000	56.928200
793.000000	56.803466
792.000000	56.827963
791.000000	56.631521
790.000000	56.365651
789.000000	56.277813
788.000000	56.196226
787.000000	56.131943
786.000000	56.163741
785.000000	56.015339
784.000000	55.812471
783.000000	55.714434
782.000000	55.660423
781.000000	55.507430
780.000000	55.332430
779.000000	55.276604
778.000000	55.216963
777.000000	55.091174
776.000000	54.975581
775.000000	54.872162
774.000000	54.631106
773.000000	54.539363
772.000000	54.597239
771.000000	54.453587
770.000000	54.205415
769.000000	54.047418
768.000000	53.861586
767.000000	53.748264
766.000000	53.675071
765.000000	53.549427
764.000000	53.441910
763.000000	53.299940
762.000000	53.223521
761.000000	53.213228
760.000000	53.096716
759.000000	52.940867
758.000000	52.836862
757.000000	52.723406
756.000000	52.604516
755.000000	52.541822
754.000000	52.442604
753.000000	52.246150
752.000000	52.178320
751.000000	52.051499
750.000000	51.900161
749.000000	51.897907
748.000000	51.795073
747.000000	51.761701
746.000000	51.593108
745.000000	51.444708
744.000000	51.460612
743.000000	51.307339
742.000000	51.169025
741.000000	51.095125
740.000000	51.045570
739.000000	50.916532
738.000000	50.867115
737.000000	50.819745
736.000000	50.749562
735.000000	50.619286
734.000000	50.506274
733.000000	50.414114
732.000000	50.450167
731.000000	50.264318
730.000000	50.155118
729.000000	50.226655
728.000000	50.104818
727.000000	50.061634
726.000000	49.992008
725.000000	49.909365
724.000000	49.774934
723.000000	49.813150
722.000000	49.770604
721.000000	49.593794
720.000000	49.522919
719.000000	49.537960
718.000000	49.494236
717.000000	49.434357
716.000000	49.370603
715.000000	49.343177
714.000000	49.270259
713.000000	49.258467
712.000000	49.224187
711.000000	49.113457
710.000000	49.092446
709.000000	49.079638
708.000000	48.980208
707.000000	48.844553
706.000000	48.887299
705.000000	48.870148
704.000000	48.803124
703.000000	48.734026
702.000000	48.663164
701.000000	48.639651
700.000000	48.514843
699.000000	48.437216
698.000000	48.361617
697.000000	48.406865
696.000000	48.287320
695.000000	48.194057
694.000000	48.116994
693.000000	48.082978
692.000000	48.005639
691.000000	47.882484
690.000000	47.698925
689.000000	47.603612
688.000000	47.565906
687.000000	47.473392
686.000000	47.400627
685.000000	47.256282
684.000000	47.152521
683.000000	47.059573
682.000000	46.913052
681.000000	46.885009
680.000000	46.759122
679.000000	46.616379
678.000000	46.466235
677.000000	46.359577
676.000000	46.190075
675.000000	46.032928
674.000000	45.889028
673.000000	45.853239
672.000000	45.696734
671.000000	45.461746
670.000000	45.373027
669.000000	45.165972
668.000000	44.979432
667.000000	44.890342
666.000000	44.679477
665.000000	44.467411
664.000000	44.278729
663.000000	44.081545
662.000000	43.899435
661.000000	43.641667
660.000000	43.475831
659.000000	43.277235
658.000000	43.056329
657.000000	42.865741
656.000000	42.660152
655.000000	42.463410
654.000000	42.157853
653.000000	41.978814
652.000000	41.745665
651.000000	41.496112
650.000000	41.247326
649.000000	40.980834
648.000000	40.771948
647.000000	40.513942
646.000000	40.267622
645.000000	40.010916
644.000000	39.779077
643.000000	39.467610
642.000000	39.236085
641.000000	38.982086
640.000000	38.755508
639.000000	38.437625
638.000000	38.132282
637.000000	37.911303
636.000000	37.652422
635.000000	37.331293
634.000000	37.092376
633.000000	36.776951
632.000000	36.512111
631.000000	36.245932
630.000000	35.952371
629.000000	35.675168
628.000000	35.465029
627.000000	35.156851
626.000000	34.923162
625.000000	34.586571
624.000000	34.296969
623.000000	33.984226
622.000000	33.741499
621.000000	33.481068
620.000000	33.214680
619.000000	32.938580
618.000000	32.683423
617.000000	32.367467
616.000000	32.091764
615.000000	31.825279
614.000000	31.551433
613.000000	31.243239
612.000000	31.042025
611.000000	30.769817
610.000000	30.484833
609.000000	30.201249
608.000000	29.928104
607.000000	29.651361
606.000000	29.414122
605.000000	29.141029
604.000000	28.893957
603.000000	28.626222
602.000000	28.382931
601.000000	28.107429
600.000000	27.862024
599.000000	27.617590
598.000000	27.405629
597.000000	27.122378
596.000000	26.878846
595.000000	26.637334
594.000000	26.363154
593.000000	26.141557
592.000000	25.904704
591.000000	25.683153
590.000000	25.448350
589.000000	25.200901
588.000000	24.977352
587.000000	24.787672
586.000000	24.534008
585.000000	24.337387
584.000000	24.099090
583.000000	23.899033
582.000000	23.676517
581.000000	23.484277
580.000000	23.257737
579.000000	23.060199
578.000000	22.825183
577.000000	22.625346
576.000000	22.450893
575.000000	22.243790
574.000000	22.048493
573.000000	21.869849
572.000000	21.703282
571.000000	21.515157
570.000000	21.339658
569.000000	21.137837
568.000000	20.949397
567.000000	20.764516
566.000000	20.618758
565.000000	20.461186
564.000000	20.281301
563.000000	20.111379
562.000000	19.962544
561.000000	19.798691
560.000000	19.639800
559.000000	19.482531
558.000000	19.333368
557.000000	19.171580
556.000000	19.026686
555.000000	18.872642
554.000000	18.741239
553.000000	18.593266
552.000000	18.453776
551.000000	18.338659
550.000000	18.191173
549.000000	18.040772
548.000000	17.930720
547.000000	17.796232
546.000000	17.672547
545.000000	17.554960
544.000000	17.442263
543.000000	17.333124
542.000000	17.212366
541.000000	17.098275
540.000000	16.984382
539.000000	16.884391
538.000000	16.780452
537.000000	16.674562
536.000000	16.573184
535.000000	16.463280
534.000000	16.370642
533.000000	16.278958
532.000000	16.187137
531.000000	16.099925
530.000000	16.015053
529.000000	15.935754
528.000000	15.848445
527.000000	15.757100
526.000000	15.677229
525.000000	15.596345
524.000000	15.507976
523.000000	15.430908
522.000000	15.363125
521.000000	15.291307
520.000000	15.225409
519.000000	15.162920
518.000000	15.097639
517.000000	15.031240
516.000000	14.962334
515.000000	14.909626
514.000000	14.845438
513.000000	14.783491
512.000000	14.735206
511.000000	14.679257
510.000000	14.626797
509.000000	14.576579
508.000000	14.531015
507.000000	14.492034
506.000000	14.454932
505.000000	14.407200
504.000000	14.357809
503.000000	14.314598
502.000000	14.271610
501.000000	14.234188
500.000000	14.198324
499.000000	14.161090
498.000000	14.126447
497.000000	14.085899
496.000000	14.039464
495.000000	13.993092
494.000000	13.975202
493.000000	13.941601
492.000000	13.882182
491.000000	13.850566
490.000000	13.819771
489.000000	13.782682
488.000000	13.763314
487.000000	13.710539
486.000000	13.665182
485.000000	13.646770
484.000000	13.611645
483.000000	13.585976
482.000000	13.543640
481.000000	13.502003
480.000000	13.486466
479.000000	13.461878
478.000000	13.439614
477.000000	13.408197
476.000000	13.391090
475.000000	13.381847
474.000000	13.352464
473.000000	13.327820
472.000000	13.309964
471.000000	13.293878
470.000000	13.273036
469.000000	13.247157
468.000000	13.224994
467.000000	13.210923
466.000000	13.198443
465.000000	13.175309
464.000000	13.161420
463.000000	13.136533
462.000000	13.124327
461.000000	13.107162
460.000000	13.093327
459.000000	13.077232
458.000000	13.061550
457.000000	13.031132
456.000000	13.021267
455.000000	12.991963
454.000000	12.966213
453.000000	12.942832
452.000000	12.927405
451.000000	12.907589
450.000000	12.865957
449.000000	12.844153
448.000000	12.820415
447.000000	12.799048
446.000000	12.761279
445.000000	12.747077
444.000000	12.697081
443.000000	12.656854
442.000000	12.620459
441.000000	12.609607
440.000000	12.601825
439.000000	12.561642
438.000000	12.549463
437.000000	12.526990
436.000000	12.497718
435.000000	12.469526
434.000000	12.449845
433.000000	12.424933
432.000000	12.416913
431.000000	12.366913
430.000000	12.338998
429.000000	12.324847
428.000000	12.298550
427.000000	12.259387
426.000000	12.215650
425.000000	12.218566
424.000000	12.198648
423.000000	12.171731
422.000000	12.141803
421.000000	12.151601
420.000000	12.095926
419.000000	12.073977
418.000000	12.022758
417.000000	12.040146
416.000000	12.016968
415.000000	11.971301
414.000000	11.954497
413.000000	11.950171
412.000000	11.911894
411.000000	11.901193
410.000000	11.851294
409.000000	11.848948
408.000000	11.827269
407.000000	11.810088
406.000000	11.792110
405.000000	11.766537
404.000000	11.757798
403.000000	11.711912
402.000000	11.709047
401.000000	11.699059
400.000000	11.678515
399.000000	11.670264
398.000000	11.652204
397.000000	11.603647
396.000000	11.629154
395.000000	11.599085
394.000000	11.580832
393.000000	11.574278
392.000000	11.530982
391.000000	11.524934
390.000000	11.510326
389.000000	11.457318
388.000000	11.463510
387.000000	11.425523
386.000000	11.399812
385.000000	11.415340
384.000000	11.352103
383.000000	11.382213
382.000000	11.306040
381.000000	11.320494
380.000000	11.331292
379.000000	11.202630
378.000000	10.971074
377.000000	10.994375
376.000000	10.898502
375.000000	10.928746
374.000000	10.837314
373.000000	10.798711
372.000000	10.705786
371.000000	10.554307
370.000000	10.402046
369.000000	10.231651
368.000000	10.071698
367.000000	9.818942
366.000000	9.551627
365.000000	9.222261
364.000000	8.852848
363.000000	8.450542
362.000000	7.962540
361.000000	7.423973
360.000000	6.853745
359.000000	6.235885
358.000000	5.548585
357.000000	4.844035
356.000000	4.141571
355.000000	3.451810
354.000000	2.762821
353.000000	2.150714
352.000000	1.614701
351.000000	1.152986
350.000000	0.771785
349.000000	0.494746
348.000000	0.293835
347.000000	0.159366
346.000000	0.083511
345.000000	0.041295
344.000000	0.024816
343.000000	0.017800
342.000000	0.020291
341.000000	0.011252
340.000000	0.011654
339.000000	0.013301
338.000000	0.012818
337.000000	0.022158
336.000000	0.026451
335.000000	0.031183
334.000000	0.026169
333.000000	0.023973
332.000000	0.028931
331.000000	0.025241
330.000000	0.019076
329.000000	0.034509
328.000000	0.035845
327.000000	0.039282
326.000000	0.044101
325.000000	0.042648
