PE UV       SUBTECH     SPECTRUM    ASCII       PEDS        4.00        
   -1
J38.Sample.Raw.asc
18/05/25
16:44:20.00
18/05/25
16:44:20.00
Administrator
longitudinal
325.000000
1
Lambda 850
850L1710193
PerkinElmer UV WinLab 6.4.0.973 / 2.02.06 Lambda 800 UV/VIS, Jan 28 2016 16:58:34

0
0
2
0
0
UV/VIS
1
1
1
RBeamAtt,SBeamAtt,60mm sphere
0
0
0
0
Fix
 
0
0.16
0
0
0
 
 
 
0
 
0
319.2
0
Front
100
 
S:100 R:100
 
0
0
0
 
0
 
 
 
0
 
 
0
0
0
0
0
 
 
 
 
0
0


0
0
#HDR
-1
-1
#GR
nm
%T
1.0
0.0
900.000000
-1.000000
576
8
75.521619
0.017377
#DATA
900.000000	73.310932
899.000000	69.258435
898.000000	71.752690
897.000000	74.854339
896.000000	74.173962
895.000000	74.175756
894.000000	72.124618
893.000000	73.310580
892.000000	75.212401
891.000000	73.752960
890.000000	74.590407
889.000000	73.419746
888.000000	72.394511
887.000000	72.491258
886.000000	74.007124
885.000000	75.014545
884.000000	72.663677
883.000000	74.814327
882.000000	75.521619
881.000000	74.189027
880.000000	75.063097
879.000000	73.668008
878.000000	73.593048
877.000000	74.113791
876.000000	74.527421
875.000000	73.189933
874.000000	73.890735
873.000000	73.685024
872.000000	73.991619
871.000000	73.324651
870.000000	72.334010
869.000000	72.758555
868.000000	73.267734
867.000000	73.231028
866.000000	72.579356
865.000000	72.770155
864.000000	73.261626
863.000000	73.097460
862.000000	72.460857
861.000000	71.813674
860.000000	72.063108
859.000000	72.108249
858.000000	71.896411
857.000000	72.384268
856.000000	72.081025
855.000000	72.333402
854.000000	72.278792
853.000000	72.159425
852.000000	72.586427
851.000000	71.882157
850.000000	71.914740
849.000000	72.069894
848.000000	72.010188
847.000000	71.918337
846.000000	71.685058
845.000000	71.942178
844.000000	71.781599
843.000000	71.177298
842.000000	71.375255
841.000000	71.713358
840.000000	71.535286
839.000000	71.577248
838.000000	71.306281
837.000000	71.206339
836.000000	71.098154
835.000000	70.979220
834.000000	70.945519
833.000000	71.098938
832.000000	70.790224
831.000000	70.995960
830.000000	70.537678
829.000000	70.641497
828.000000	70.725021
827.000000	70.574537
826.000000	70.454622
825.000000	70.409129
824.000000	70.327866
823.000000	70.455202
822.000000	70.559990
821.000000	70.219772
820.000000	70.149406
819.000000	70.340164
818.000000	70.156032
817.000000	70.215597
816.000000	70.176321
815.000000	69.874611
814.000000	69.965703
813.000000	70.134879
812.000000	69.955471
811.000000	69.905345
810.000000	69.929889
809.000000	69.793145
808.000000	69.763073
807.000000	69.949414
806.000000	69.905078
805.000000	69.807916
804.000000	69.319618
803.000000	69.334475
802.000000	69.556990
801.000000	69.517180
800.000000	69.694942
799.000000	69.681618
798.000000	69.582684
797.000000	69.467127
796.000000	69.299757
795.000000	69.215731
794.000000	69.205040
793.000000	69.292466
792.000000	69.374776
791.000000	69.138957
790.000000	69.031400
789.000000	69.029749
788.000000	68.971979
787.000000	69.008271
786.000000	69.049983
785.000000	68.940485
784.000000	68.778447
783.000000	68.753817
782.000000	68.839639
781.000000	68.799847
780.000000	68.700958
779.000000	68.679432
778.000000	68.711157
777.000000	68.594577
776.000000	68.507533
775.000000	68.644732
774.000000	68.526282
773.000000	68.503152
772.000000	68.594500
771.000000	68.508438
770.000000	68.363104
769.000000	68.275464
768.000000	68.177434
767.000000	68.117856
766.000000	68.107818
765.000000	68.042782
764.000000	67.932193
763.000000	67.895723
762.000000	67.956149
761.000000	68.002738
760.000000	67.936101
759.000000	67.823083
758.000000	67.748926
757.000000	67.776261
756.000000	67.787393
755.000000	67.776068
754.000000	67.732463
753.000000	67.536602
752.000000	67.500287
751.000000	67.459797
750.000000	67.370408
749.000000	67.385176
748.000000	67.416965
747.000000	67.450604
746.000000	67.309595
745.000000	67.249180
744.000000	67.280900
743.000000	67.177204
742.000000	67.019239
741.000000	67.034913
740.000000	67.131868
739.000000	66.980637
738.000000	67.004394
737.000000	67.067039
736.000000	66.970005
735.000000	66.853774
734.000000	66.735043
733.000000	66.751266
732.000000	66.856688
731.000000	66.682263
730.000000	66.715228
729.000000	66.791894
728.000000	66.683528
727.000000	66.640162
726.000000	66.601323
725.000000	66.579840
724.000000	66.506284
723.000000	66.513526
722.000000	66.395711
721.000000	66.411895
720.000000	66.419699
719.000000	66.478117
718.000000	66.342238
717.000000	66.265465
716.000000	66.321140
715.000000	66.306073
714.000000	66.214668
713.000000	66.281398
712.000000	66.188863
711.000000	66.165639
710.000000	66.083659
709.000000	66.116867
708.000000	66.143958
707.000000	66.034733
706.000000	66.006303
705.000000	65.999493
704.000000	65.997964
703.000000	65.952084
702.000000	65.904973
701.000000	65.842724
700.000000	65.871416
699.000000	65.788417
698.000000	65.713178
697.000000	65.794411
696.000000	65.757059
695.000000	65.648437
694.000000	65.621456
693.000000	65.619868
692.000000	65.601176
691.000000	65.504754
690.000000	65.348281
689.000000	65.297117
688.000000	65.406771
687.000000	65.316387
686.000000	65.194708
685.000000	65.129403
684.000000	65.166686
683.000000	65.081385
682.000000	65.062330
681.000000	64.973372
680.000000	64.888691
679.000000	64.860346
678.000000	64.853334
677.000000	64.786520
676.000000	64.745165
675.000000	64.683217
674.000000	64.612490
673.000000	64.550942
672.000000	64.475949
671.000000	64.378787
670.000000	64.318972
669.000000	64.326351
668.000000	64.168051
667.000000	64.172754
666.000000	64.184000
665.000000	64.056525
664.000000	63.916871
663.000000	63.890268
662.000000	63.790303
661.000000	63.705815
660.000000	63.708473
659.000000	63.567020
658.000000	63.385893
657.000000	63.332578
656.000000	63.322759
655.000000	63.258095
654.000000	63.074308
653.000000	62.983686
652.000000	62.925176
651.000000	62.835399
650.000000	62.685463
649.000000	62.622596
648.000000	62.533125
647.000000	62.501842
646.000000	62.302886
645.000000	62.183100
644.000000	62.151906
643.000000	61.910789
642.000000	61.903840
641.000000	61.806236
640.000000	61.665622
639.000000	61.613824
638.000000	61.409550
637.000000	61.426262
636.000000	61.241097
635.000000	61.127863
634.000000	61.014549
633.000000	60.840860
632.000000	60.727872
631.000000	60.642712
630.000000	60.505825
629.000000	60.428152
628.000000	60.285916
627.000000	60.130991
626.000000	60.104100
625.000000	59.934640
624.000000	59.752153
623.000000	59.619235
622.000000	59.507509
621.000000	59.339654
620.000000	59.250070
619.000000	59.136352
618.000000	59.029736
617.000000	58.900905
616.000000	58.745370
615.000000	58.627452
614.000000	58.541722
613.000000	58.328327
612.000000	58.278810
611.000000	58.109402
610.000000	57.998941
609.000000	57.806415
608.000000	57.729028
607.000000	57.527937
606.000000	57.409537
605.000000	57.285914
604.000000	57.128262
603.000000	57.028807
602.000000	56.932878
601.000000	56.779830
600.000000	56.604522
599.000000	56.470992
598.000000	56.418164
597.000000	56.253509
596.000000	56.107749
595.000000	55.997371
594.000000	55.799393
593.000000	55.717664
592.000000	55.568538
591.000000	55.449587
590.000000	55.315281
589.000000	55.134362
588.000000	55.049475
587.000000	54.975099
586.000000	54.772667
585.000000	54.689054
584.000000	54.544865
583.000000	54.379511
582.000000	54.246647
581.000000	54.175491
580.000000	53.990350
579.000000	53.903864
578.000000	53.781804
577.000000	53.627368
576.000000	53.519912
575.000000	53.394417
574.000000	53.297102
573.000000	53.174822
572.000000	52.994348
571.000000	52.912004
570.000000	52.815472
569.000000	52.666930
568.000000	52.547413
567.000000	52.431678
566.000000	52.325100
565.000000	52.229637
564.000000	52.065743
563.000000	51.956974
562.000000	51.861007
561.000000	51.745219
560.000000	51.624759
559.000000	51.526582
558.000000	51.448388
557.000000	51.336225
556.000000	51.251527
555.000000	51.125749
554.000000	51.012895
553.000000	50.891513
552.000000	50.774371
551.000000	50.699666
550.000000	50.609834
549.000000	50.487272
548.000000	50.418922
547.000000	50.297449
546.000000	50.167717
545.000000	50.089016
544.000000	50.015642
543.000000	49.904268
542.000000	49.819478
541.000000	49.731655
540.000000	49.635601
539.000000	49.569963
538.000000	49.485674
537.000000	49.372747
536.000000	49.310836
535.000000	49.226538
534.000000	49.142978
533.000000	49.055081
532.000000	48.975436
531.000000	48.913213
530.000000	48.820737
529.000000	48.737568
528.000000	48.679543
527.000000	48.610720
526.000000	48.529142
525.000000	48.442950
524.000000	48.367948
523.000000	48.311521
522.000000	48.263056
521.000000	48.182012
520.000000	48.101066
519.000000	48.049788
518.000000	47.983798
517.000000	47.910272
516.000000	47.832990
515.000000	47.777326
514.000000	47.720584
513.000000	47.652594
512.000000	47.606884
511.000000	47.551720
510.000000	47.484088
509.000000	47.429983
508.000000	47.385389
507.000000	47.338104
506.000000	47.285703
505.000000	47.224508
504.000000	47.182669
503.000000	47.123131
502.000000	47.061607
501.000000	47.015554
500.000000	46.951414
499.000000	46.890622
498.000000	46.848339
497.000000	46.780165
496.000000	46.712257
495.000000	46.656604
494.000000	46.635836
493.000000	46.574525
492.000000	46.492374
491.000000	46.435278
490.000000	46.379991
489.000000	46.340929
488.000000	46.269048
487.000000	46.225249
486.000000	46.212072
485.000000	46.192165
484.000000	46.086753
483.000000	46.050581
482.000000	46.006868
481.000000	45.951007
480.000000	45.941058
479.000000	45.925482
478.000000	45.855400
477.000000	45.823306
476.000000	45.804623
475.000000	45.750952
474.000000	45.714191
473.000000	45.649629
472.000000	45.610167
471.000000	45.614083
470.000000	45.556905
469.000000	45.479527
468.000000	45.452200
467.000000	45.410933
466.000000	45.369402
465.000000	45.338307
464.000000	45.310807
463.000000	45.250179
462.000000	45.169457
461.000000	45.132784
460.000000	45.068042
459.000000	45.035337
458.000000	44.980025
457.000000	44.914196
456.000000	44.859248
455.000000	44.783978
454.000000	44.707303
453.000000	44.615016
452.000000	44.608468
451.000000	44.569136
450.000000	44.502437
449.000000	44.421289
448.000000	44.359845
447.000000	44.286774
446.000000	44.229523
445.000000	44.127889
444.000000	44.029250
443.000000	43.938546
442.000000	43.880482
441.000000	43.845614
440.000000	43.764920
439.000000	43.650400
438.000000	43.599050
437.000000	43.578527
436.000000	43.460521
435.000000	43.366146
434.000000	43.279639
433.000000	43.245700
432.000000	43.140377
431.000000	43.008089
430.000000	42.934817
429.000000	42.864142
428.000000	42.773117
427.000000	42.662935
426.000000	42.555107
425.000000	42.437708
424.000000	42.375845
423.000000	42.270869
422.000000	42.186648
421.000000	42.075283
420.000000	41.995853
419.000000	41.887145
418.000000	41.793169
417.000000	41.682655
416.000000	41.510100
415.000000	41.434346
414.000000	41.310783
413.000000	41.185086
412.000000	41.067539
411.000000	40.916402
410.000000	40.799510
409.000000	40.700722
408.000000	40.604575
407.000000	40.473801
406.000000	40.341272
405.000000	40.203634
404.000000	40.117551
403.000000	39.934876
402.000000	39.791008
401.000000	39.733395
400.000000	39.575060
399.000000	39.436204
398.000000	39.250301
397.000000	39.145576
396.000000	38.997150
395.000000	38.867809
394.000000	38.729406
393.000000	38.593444
392.000000	38.431389
391.000000	38.206378
390.000000	38.087374
389.000000	37.924173
388.000000	37.794671
387.000000	37.532771
386.000000	37.425012
385.000000	37.293189
384.000000	37.089006
383.000000	36.957678
382.000000	36.667391
381.000000	36.556156
380.000000	36.349888
379.000000	36.251662
378.000000	35.905097
377.000000	35.475552
376.000000	35.326030
375.000000	35.067026
374.000000	34.749315
373.000000	34.410069
372.000000	34.090215
371.000000	33.704239
370.000000	33.294855
369.000000	32.705580
368.000000	32.117643
367.000000	31.485540
366.000000	30.758446
365.000000	29.877096
364.000000	28.928895
363.000000	27.892152
362.000000	26.675744
361.000000	25.354988
360.000000	23.882880
359.000000	22.354512
358.000000	20.604871
357.000000	18.714623
356.000000	16.774755
355.000000	14.689742
354.000000	12.668853
353.000000	10.618114
352.000000	8.623509
351.000000	6.794670
350.000000	5.164858
349.000000	3.719801
348.000000	2.544940
347.000000	1.638166
346.000000	0.997046
345.000000	0.545857
344.000000	0.271151
343.000000	0.132007
342.000000	0.060393
341.000000	0.028177
340.000000	0.021575
339.000000	0.017830
338.000000	0.021877
337.000000	0.021965
336.000000	0.019211
335.000000	0.017377
334.000000	0.019892
333.000000	0.024167
332.000000	0.031833
331.000000	0.028336
330.000000	0.029630
329.000000	0.031310
328.000000	0.028289
327.000000	0.024636
326.000000	0.030696
325.000000	0.032836
