PE UV       SUBTECH     SPECTRUM    ASCII       PEDS        4.00        
   -1
J11.Sample.Raw.asc
18/05/25
12:18:29.00
18/05/25
12:18:29.00
Administrator
longitudinal
325.000000
1
Lambda 850
850L1710193
PerkinElmer UV WinLab 6.4.0.973 / 2.02.06 Lambda 800 UV/VIS, Jan 28 2016 16:58:34

0
0
2
0
0
UV/VIS
1
1
1
RBeamAtt,SBeamAtt,60mm sphere
0
0
0
0
Fix
 
0
0.16
0
0
0
 
 
 
0
 
0
319.2
0
Front
100
 
S:100 R:100
 
0
0
0
 
0
 
 
 
0
 
 
0
0
0
0
0
 
 
 
 
0
0


0
0
#HDR
-1
-1
#GR
nm
%T
1.0
0.0
900.000000
-1.000000
576
8
68.082874
0.009711
#DATA
900.000000	64.320447
899.000000	66.346059
898.000000	64.583414
897.000000	67.095699
896.000000	66.606767
895.000000	66.824331
894.000000	66.422626
893.000000	67.266015
892.000000	65.961794
891.000000	66.386047
890.000000	66.340374
889.000000	67.222528
888.000000	68.082874
887.000000	67.870861
886.000000	67.549997
885.000000	65.732245
884.000000	65.376448
883.000000	65.865897
882.000000	66.405631
881.000000	65.664746
880.000000	67.006696
879.000000	67.044302
878.000000	66.777215
877.000000	66.157684
876.000000	67.004507
875.000000	67.117247
874.000000	67.483339
873.000000	65.999856
872.000000	65.696914
871.000000	66.483904
870.000000	65.672962
869.000000	66.463686
868.000000	66.608850
867.000000	66.392089
866.000000	64.944332
865.000000	65.062162
864.000000	65.359296
863.000000	64.743750
862.000000	64.620993
861.000000	65.799041
860.000000	64.510966
859.000000	64.919199
858.000000	64.821005
857.000000	64.547998
856.000000	65.053793
855.000000	64.509194
854.000000	64.671017
853.000000	64.241028
852.000000	64.456022
851.000000	64.421434
850.000000	64.290139
849.000000	63.934124
848.000000	64.264708
847.000000	64.093189
846.000000	63.472441
845.000000	63.472144
844.000000	63.445336
843.000000	63.413084
842.000000	63.226232
841.000000	62.902508
840.000000	63.045733
839.000000	62.751432
838.000000	62.684552
837.000000	62.496743
836.000000	62.354625
835.000000	62.274300
834.000000	62.018893
833.000000	61.929033
832.000000	61.813150
831.000000	61.816459
830.000000	61.676061
829.000000	61.785945
828.000000	61.459297
827.000000	61.353099
826.000000	61.289443
825.000000	61.156558
824.000000	60.968503
823.000000	60.966781
822.000000	60.891512
821.000000	60.699881
820.000000	60.503925
819.000000	60.559423
818.000000	60.411439
817.000000	60.364691
816.000000	60.295592
815.000000	60.256149
814.000000	60.098803
813.000000	59.724875
812.000000	59.638762
811.000000	59.710645
810.000000	59.652646
809.000000	59.673872
808.000000	59.525501
807.000000	59.270311
806.000000	59.229564
805.000000	59.043943
804.000000	58.920058
803.000000	58.794278
802.000000	58.769928
801.000000	58.777685
800.000000	58.626023
799.000000	58.495066
798.000000	58.279067
797.000000	58.332234
796.000000	58.276303
795.000000	58.161894
794.000000	58.056994
793.000000	57.904371
792.000000	57.674455
791.000000	57.514395
790.000000	57.585111
789.000000	57.507326
788.000000	57.368107
787.000000	57.328631
786.000000	57.225487
785.000000	57.005329
784.000000	56.911368
783.000000	56.906487
782.000000	56.715994
781.000000	56.651604
780.000000	56.611278
779.000000	56.378717
778.000000	56.278509
777.000000	56.224555
776.000000	56.181582
775.000000	56.035827
774.000000	55.920413
773.000000	55.921621
772.000000	55.804677
771.000000	55.611064
770.000000	55.520184
769.000000	55.410440
768.000000	55.257272
767.000000	55.205707
766.000000	55.132779
765.000000	54.964236
764.000000	54.878762
763.000000	54.799973
762.000000	54.675934
761.000000	54.532334
760.000000	54.370985
759.000000	54.308916
758.000000	54.311519
757.000000	54.232878
756.000000	54.125633
755.000000	53.936541
754.000000	53.853201
753.000000	53.807487
752.000000	53.629842
751.000000	53.574739
750.000000	53.513129
749.000000	53.342636
748.000000	53.267306
747.000000	53.218445
746.000000	53.070169
745.000000	53.001331
744.000000	52.936946
743.000000	52.815533
742.000000	52.677479
741.000000	52.653207
740.000000	52.539411
739.000000	52.459878
738.000000	52.436555
737.000000	52.338387
736.000000	52.219253
735.000000	52.186168
734.000000	52.118873
733.000000	52.095169
732.000000	52.021875
731.000000	51.884582
730.000000	51.918347
729.000000	51.807816
728.000000	51.725730
727.000000	51.693244
726.000000	51.661867
725.000000	51.570356
724.000000	51.419512
723.000000	51.374436
722.000000	51.319056
721.000000	51.269350
720.000000	51.141059
719.000000	51.176950
718.000000	51.126176
717.000000	51.123156
716.000000	51.084877
715.000000	50.973175
714.000000	50.870856
713.000000	50.908481
712.000000	50.865935
711.000000	50.785903
710.000000	50.727837
709.000000	50.664348
708.000000	50.563546
707.000000	50.578983
706.000000	50.564168
705.000000	50.465430
704.000000	50.341779
703.000000	50.332701
702.000000	50.356411
701.000000	50.282152
700.000000	50.219865
699.000000	50.200996
698.000000	50.091364
697.000000	50.031671
696.000000	49.942768
695.000000	49.890696
694.000000	49.805273
693.000000	49.817757
692.000000	49.755365
691.000000	49.673446
690.000000	49.498004
689.000000	49.445635
688.000000	49.353607
687.000000	49.213933
686.000000	49.200458
685.000000	49.082512
684.000000	48.879648
683.000000	48.842740
682.000000	48.756081
681.000000	48.669132
680.000000	48.506021
679.000000	48.440886
678.000000	48.301239
677.000000	48.118156
676.000000	47.986077
675.000000	47.908847
674.000000	47.807156
673.000000	47.657732
672.000000	47.493777
671.000000	47.275334
670.000000	47.205230
669.000000	47.056006
668.000000	46.891272
667.000000	46.711670
666.000000	46.539777
665.000000	46.391026
664.000000	46.222252
663.000000	46.042800
662.000000	45.823801
661.000000	45.686283
660.000000	45.472184
659.000000	45.255772
658.000000	45.005251
657.000000	44.845388
656.000000	44.689283
655.000000	44.432744
654.000000	44.288447
653.000000	44.049290
652.000000	43.704141
651.000000	43.602729
650.000000	43.303897
649.000000	43.099229
648.000000	42.852599
647.000000	42.630852
646.000000	42.393391
645.000000	42.106379
644.000000	41.893331
643.000000	41.655614
642.000000	41.358378
641.000000	41.158303
640.000000	40.905945
639.000000	40.617237
638.000000	40.395584
637.000000	40.118004
636.000000	39.835754
635.000000	39.587615
634.000000	39.382346
633.000000	39.026194
632.000000	38.799236
631.000000	38.553984
630.000000	38.289026
629.000000	38.014702
628.000000	37.772636
627.000000	37.497662
626.000000	37.249311
625.000000	36.950165
624.000000	36.702997
623.000000	36.380097
622.000000	36.125062
621.000000	35.843731
620.000000	35.622383
619.000000	35.318553
618.000000	35.063735
617.000000	34.762770
616.000000	34.543515
615.000000	34.287667
614.000000	33.987458
613.000000	33.735838
612.000000	33.464855
611.000000	33.205129
610.000000	32.936775
609.000000	32.686136
608.000000	32.404452
607.000000	32.182832
606.000000	31.868091
605.000000	31.612213
604.000000	31.395322
603.000000	31.141592
602.000000	30.900713
601.000000	30.632812
600.000000	30.392754
599.000000	30.151938
598.000000	29.879682
597.000000	29.653519
596.000000	29.407997
595.000000	29.169885
594.000000	28.917675
593.000000	28.664400
592.000000	28.441514
591.000000	28.212161
590.000000	27.977825
589.000000	27.761003
588.000000	27.518223
587.000000	27.292471
586.000000	27.070571
585.000000	26.841361
584.000000	26.638788
583.000000	26.424681
582.000000	26.217502
581.000000	26.004223
580.000000	25.783637
579.000000	25.567597
578.000000	25.379442
577.000000	25.178110
576.000000	24.977131
575.000000	24.795771
574.000000	24.599198
573.000000	24.392161
572.000000	24.208441
571.000000	24.021018
570.000000	23.833947
569.000000	23.645983
568.000000	23.492194
567.000000	23.322651
566.000000	23.123416
565.000000	22.949084
564.000000	22.786043
563.000000	22.617858
562.000000	22.451986
561.000000	22.275921
560.000000	22.105382
559.000000	21.941374
558.000000	21.784254
557.000000	21.636196
556.000000	21.493113
555.000000	21.344317
554.000000	21.213937
553.000000	21.081845
552.000000	20.941259
551.000000	20.792256
550.000000	20.629288
549.000000	20.510016
548.000000	20.377030
547.000000	20.246266
546.000000	20.116297
545.000000	19.995597
544.000000	19.882725
543.000000	19.766171
542.000000	19.657168
541.000000	19.530095
540.000000	19.407984
539.000000	19.295248
538.000000	19.190330
537.000000	19.071831
536.000000	18.961570
535.000000	18.870877
534.000000	18.775869
533.000000	18.675878
532.000000	18.593840
531.000000	18.503152
530.000000	18.399744
529.000000	18.310623
528.000000	18.215505
527.000000	18.114730
526.000000	18.032263
525.000000	17.947667
524.000000	17.870801
523.000000	17.797112
522.000000	17.721116
521.000000	17.646895
520.000000	17.571408
519.000000	17.508416
518.000000	17.431443
517.000000	17.361040
516.000000	17.301771
515.000000	17.229776
514.000000	17.169572
513.000000	17.106354
512.000000	17.039203
511.000000	16.982537
510.000000	16.927897
509.000000	16.883121
508.000000	16.837539
507.000000	16.775297
506.000000	16.718271
505.000000	16.683830
504.000000	16.648351
503.000000	16.599171
502.000000	16.550654
501.000000	16.512549
500.000000	16.477555
499.000000	16.430025
498.000000	16.387678
497.000000	16.336796
496.000000	16.295055
495.000000	16.249615
494.000000	16.202026
493.000000	16.172486
492.000000	16.132343
491.000000	16.093293
490.000000	16.051544
489.000000	16.003706
488.000000	15.973451
487.000000	15.941243
486.000000	15.907869
485.000000	15.862542
484.000000	15.835657
483.000000	15.803739
482.000000	15.772991
481.000000	15.732996
480.000000	15.702146
479.000000	15.663902
478.000000	15.634093
477.000000	15.619763
476.000000	15.615547
475.000000	15.584222
474.000000	15.558295
473.000000	15.519548
472.000000	15.496181
471.000000	15.468279
470.000000	15.446729
469.000000	15.432360
468.000000	15.409519
467.000000	15.385785
466.000000	15.374591
465.000000	15.349712
464.000000	15.315468
463.000000	15.303537
462.000000	15.289682
461.000000	15.269197
460.000000	15.250762
459.000000	15.226669
458.000000	15.200165
457.000000	15.182169
456.000000	15.157375
455.000000	15.136778
454.000000	15.114152
453.000000	15.080905
452.000000	15.040378
451.000000	15.014362
450.000000	14.992097
449.000000	14.964469
448.000000	14.932277
447.000000	14.907073
446.000000	14.883139
445.000000	14.844979
444.000000	14.806557
443.000000	14.751514
442.000000	14.722571
441.000000	14.713248
440.000000	14.684767
439.000000	14.667778
438.000000	14.623058
437.000000	14.597298
436.000000	14.551605
435.000000	14.524660
434.000000	14.517420
433.000000	14.489204
432.000000	14.467377
431.000000	14.437941
430.000000	14.404081
429.000000	14.385178
428.000000	14.344560
427.000000	14.304151
426.000000	14.295093
425.000000	14.263588
424.000000	14.240946
423.000000	14.205661
422.000000	14.153653
421.000000	14.158271
420.000000	14.126864
419.000000	14.103629
418.000000	14.088931
417.000000	14.069338
416.000000	14.008581
415.000000	13.993357
414.000000	13.962534
413.000000	13.915592
412.000000	13.890251
411.000000	13.862353
410.000000	13.862470
409.000000	13.843140
408.000000	13.818549
407.000000	13.803345
406.000000	13.747787
405.000000	13.720377
404.000000	13.694309
403.000000	13.645015
402.000000	13.649319
401.000000	13.608430
400.000000	13.601845
399.000000	13.609711
398.000000	13.534149
397.000000	13.528316
396.000000	13.519784
395.000000	13.491252
394.000000	13.491357
393.000000	13.431043
392.000000	13.415060
391.000000	13.393854
390.000000	13.365786
389.000000	13.311944
388.000000	13.292705
387.000000	13.229142
386.000000	13.267980
385.000000	13.211045
384.000000	13.186119
383.000000	13.151037
382.000000	13.136269
381.000000	13.072460
380.000000	13.060215
379.000000	12.968721
378.000000	12.812238
377.000000	12.664413
376.000000	12.644280
375.000000	12.612651
374.000000	12.567167
373.000000	12.413461
372.000000	12.328434
371.000000	12.177338
370.000000	11.992838
369.000000	11.809796
368.000000	11.568404
367.000000	11.303570
366.000000	10.984112
365.000000	10.599058
364.000000	10.156977
363.000000	9.634159
362.000000	9.125132
361.000000	8.530723
360.000000	7.867687
359.000000	7.142680
358.000000	6.403468
357.000000	5.607964
356.000000	4.796494
355.000000	3.985600
354.000000	3.218646
353.000000	2.505549
352.000000	1.881811
351.000000	1.330426
350.000000	0.903630
349.000000	0.580487
348.000000	0.345499
347.000000	0.198350
346.000000	0.098684
345.000000	0.048497
344.000000	0.029900
343.000000	0.016705
342.000000	0.017691
341.000000	0.009711
340.000000	0.010759
339.000000	0.015196
338.000000	0.016378
337.000000	0.015308
336.000000	0.017144
335.000000	0.020534
334.000000	0.018601
333.000000	0.022489
332.000000	0.024231
331.000000	0.020683
330.000000	0.024080
329.000000	0.024011
328.000000	0.028057
327.000000	0.036775
326.000000	0.036703
325.000000	0.036562
