PE UV       SUBTECH     SPECTRUM    ASCII       PEDS        4.00        
   -1
J23.Sample.Raw.asc
18/05/25
12:22:01.00
18/05/25
12:22:01.00
Administrator
longitudinal
325.000000
1
Lambda 850
850L1710193
PerkinElmer UV WinLab 6.4.0.973 / 2.02.06 Lambda 800 UV/VIS, Jan 28 2016 16:58:34

0
0
2
0
0
UV/VIS
1
1
1
RBeamAtt,SBeamAtt,60mm sphere
0
0
0
0
Fix
 
0
0.16
0
0
0
 
 
 
0
 
0
319.2
0
Front
100
 
S:100 R:100
 
0
0
0
 
0
 
 
 
0
 
 
0
0
0
0
0
 
 
 
 
0
0


0
0
#HDR
-1
-1
#GR
nm
%T
1.0
0.0
900.000000
-1.000000
576
8
64.196670
-0.016243
#DATA
900.000000	58.353899
899.000000	62.100387
898.000000	59.103975
897.000000	59.239882
896.000000	64.196670
895.000000	61.181584
894.000000	60.290090
893.000000	63.451660
892.000000	60.853992
891.000000	60.046654
890.000000	61.397419
889.000000	59.776293
888.000000	60.295142
887.000000	60.747772
886.000000	60.351216
885.000000	60.326821
884.000000	58.171907
883.000000	58.762172
882.000000	58.299428
881.000000	58.564847
880.000000	59.388777
879.000000	58.306497
878.000000	57.275171
877.000000	58.168725
876.000000	58.163712
875.000000	58.448291
874.000000	57.702436
873.000000	57.098232
872.000000	56.117710
871.000000	55.756231
870.000000	56.650802
869.000000	56.804719
868.000000	56.009604
867.000000	55.373770
866.000000	54.470561
865.000000	55.182885
864.000000	55.074680
863.000000	54.269830
862.000000	54.199618
861.000000	53.995593
860.000000	53.105051
859.000000	53.389304
858.000000	52.971331
857.000000	52.837951
856.000000	52.634645
855.000000	51.946823
854.000000	51.711706
853.000000	51.425947
852.000000	51.235503
851.000000	51.063103
850.000000	50.694088
849.000000	50.540888
848.000000	50.352166
847.000000	50.071399
846.000000	49.434885
845.000000	49.371932
844.000000	49.060308
843.000000	48.654838
842.000000	48.564276
841.000000	47.804952
840.000000	47.719997
839.000000	47.413717
838.000000	47.082367
837.000000	46.842570
836.000000	46.552627
835.000000	46.223741
834.000000	45.798691
833.000000	45.307542
832.000000	45.150767
831.000000	44.916639
830.000000	44.634248
829.000000	44.411134
828.000000	44.050443
827.000000	43.718535
826.000000	43.427716
825.000000	43.223325
824.000000	42.879121
823.000000	42.643888
822.000000	42.359178
821.000000	42.033853
820.000000	41.759570
819.000000	41.481126
818.000000	41.224201
817.000000	40.999219
816.000000	40.768143
815.000000	40.623976
814.000000	40.291249
813.000000	39.897683
812.000000	39.697047
811.000000	39.441716
810.000000	39.086251
809.000000	38.775197
808.000000	38.514561
807.000000	38.263391
806.000000	38.071914
805.000000	37.704710
804.000000	37.423602
803.000000	37.168485
802.000000	36.963208
801.000000	36.796144
800.000000	36.594146
799.000000	36.301934
798.000000	36.032303
797.000000	35.815315
796.000000	35.530537
795.000000	35.351109
794.000000	35.050635
793.000000	34.672239
792.000000	34.356476
791.000000	34.104988
790.000000	33.942567
789.000000	33.674739
788.000000	33.406389
787.000000	33.139423
786.000000	32.964897
785.000000	32.687239
784.000000	32.468213
783.000000	32.253357
782.000000	31.985257
781.000000	31.707286
780.000000	31.475437
779.000000	31.272655
778.000000	31.013830
777.000000	30.754826
776.000000	30.520129
775.000000	30.268696
774.000000	30.039892
773.000000	29.842083
772.000000	29.642161
771.000000	29.376059
770.000000	29.095402
769.000000	28.882596
768.000000	28.645428
767.000000	28.369278
766.000000	28.162111
765.000000	27.981250
764.000000	27.768039
763.000000	27.546028
762.000000	27.306433
761.000000	27.106360
760.000000	26.873273
759.000000	26.686139
758.000000	26.495210
757.000000	26.292399
756.000000	26.076267
755.000000	25.816412
754.000000	25.638284
753.000000	25.424084
752.000000	25.237738
751.000000	25.119235
750.000000	24.932020
749.000000	24.728463
748.000000	24.566191
747.000000	24.422919
746.000000	24.237277
745.000000	24.103640
744.000000	23.917545
743.000000	23.681313
742.000000	23.523460
741.000000	23.411970
740.000000	23.255243
739.000000	23.104305
738.000000	22.968582
737.000000	22.841840
736.000000	22.703833
735.000000	22.602862
734.000000	22.456019
733.000000	22.369392
732.000000	22.246030
731.000000	22.120639
730.000000	22.028814
729.000000	21.891785
728.000000	21.779712
727.000000	21.649418
726.000000	21.555097
725.000000	21.463330
724.000000	21.357448
723.000000	21.269168
722.000000	21.192789
721.000000	21.104141
720.000000	21.027590
719.000000	20.933566
718.000000	20.858782
717.000000	20.801441
716.000000	20.705832
715.000000	20.625193
714.000000	20.549409
713.000000	20.476004
712.000000	20.436559
711.000000	20.296466
710.000000	20.275710
709.000000	20.184418
708.000000	20.129915
707.000000	20.054072
706.000000	20.006430
705.000000	19.916027
704.000000	19.821772
703.000000	19.753142
702.000000	19.697384
701.000000	19.631801
700.000000	19.521713
699.000000	19.430094
698.000000	19.347097
697.000000	19.258766
696.000000	19.139683
695.000000	19.064508
694.000000	18.939580
693.000000	18.856224
692.000000	18.786260
691.000000	18.661395
690.000000	18.531934
689.000000	18.394714
688.000000	18.264994
687.000000	18.158960
686.000000	18.015940
685.000000	17.872041
684.000000	17.734139
683.000000	17.600448
682.000000	17.450527
681.000000	17.285661
680.000000	17.115814
679.000000	16.969754
678.000000	16.786964
677.000000	16.612013
676.000000	16.446964
675.000000	16.268563
674.000000	16.072810
673.000000	15.914441
672.000000	15.711996
671.000000	15.466402
670.000000	15.285144
669.000000	15.089645
668.000000	14.887409
667.000000	14.679387
666.000000	14.447964
665.000000	14.235538
664.000000	13.998318
663.000000	13.794691
662.000000	13.552966
661.000000	13.334384
660.000000	13.105784
659.000000	12.862698
658.000000	12.650624
657.000000	12.414612
656.000000	12.182178
655.000000	11.940971
654.000000	11.705976
653.000000	11.470948
652.000000	11.229522
651.000000	11.020622
650.000000	10.748557
649.000000	10.554345
648.000000	10.288012
647.000000	10.088257
646.000000	9.849426
645.000000	9.616505
644.000000	9.366208
643.000000	9.144909
642.000000	8.931096
641.000000	8.703011
640.000000	8.485812
639.000000	8.266447
638.000000	8.086450
637.000000	7.851199
636.000000	7.657214
635.000000	7.442307
634.000000	7.239651
633.000000	7.036225
632.000000	6.863566
631.000000	6.674719
630.000000	6.466356
629.000000	6.299929
628.000000	6.105247
627.000000	5.944703
626.000000	5.759038
625.000000	5.584438
624.000000	5.421558
623.000000	5.266960
622.000000	5.087789
621.000000	4.939343
620.000000	4.794348
619.000000	4.649113
618.000000	4.504623
617.000000	4.369284
616.000000	4.233201
615.000000	4.098006
614.000000	3.966822
613.000000	3.841169
612.000000	3.716936
611.000000	3.593481
610.000000	3.482327
609.000000	3.365877
608.000000	3.264343
607.000000	3.160339
606.000000	3.047875
605.000000	2.938965
604.000000	2.851159
603.000000	2.752029
602.000000	2.668801
601.000000	2.583746
600.000000	2.498075
599.000000	2.411847
598.000000	2.332252
597.000000	2.252660
596.000000	2.178130
595.000000	2.107205
594.000000	2.030476
593.000000	1.971407
592.000000	1.905151
591.000000	1.834094
590.000000	1.776106
589.000000	1.713267
588.000000	1.660772
587.000000	1.604548
586.000000	1.560062
585.000000	1.502521
584.000000	1.450420
583.000000	1.404551
582.000000	1.352225
581.000000	1.312331
580.000000	1.268975
579.000000	1.227935
578.000000	1.188839
577.000000	1.152526
576.000000	1.114203
575.000000	1.078096
574.000000	1.044416
573.000000	1.014445
572.000000	0.982758
571.000000	0.952206
570.000000	0.919782
569.000000	0.893547
568.000000	0.863520
567.000000	0.840089
566.000000	0.817826
565.000000	0.797754
564.000000	0.771956
563.000000	0.748260
562.000000	0.720281
561.000000	0.687571
560.000000	0.668246
559.000000	0.652611
558.000000	0.633406
557.000000	0.614542
556.000000	0.595065
555.000000	0.577011
554.000000	0.561310
553.000000	0.545609
552.000000	0.527468
551.000000	0.515225
550.000000	0.503703
549.000000	0.490696
548.000000	0.475527
547.000000	0.465071
546.000000	0.453042
545.000000	0.441794
544.000000	0.430718
543.000000	0.421625
542.000000	0.409648
541.000000	0.401618
540.000000	0.389305
539.000000	0.378518
538.000000	0.369730
537.000000	0.361861
536.000000	0.354254
535.000000	0.345552
534.000000	0.339494
533.000000	0.329513
532.000000	0.320493
531.000000	0.314470
530.000000	0.308395
529.000000	0.302316
528.000000	0.297456
527.000000	0.292663
526.000000	0.285791
525.000000	0.278690
524.000000	0.271370
523.000000	0.267673
522.000000	0.264900
521.000000	0.259752
520.000000	0.257039
519.000000	0.255062
518.000000	0.251713
517.000000	0.247358
516.000000	0.244194
515.000000	0.242317
514.000000	0.244687
513.000000	0.246956
512.000000	0.245558
511.000000	0.247241
510.000000	0.250248
509.000000	0.251750
508.000000	0.254988
507.000000	0.259230
506.000000	0.264762
505.000000	0.272312
504.000000	0.277830
503.000000	0.279154
502.000000	0.279833
501.000000	0.281667
500.000000	0.282245
499.000000	0.281606
498.000000	0.283805
497.000000	0.284512
496.000000	0.281075
495.000000	0.274641
494.000000	0.267930
493.000000	0.261643
492.000000	0.255132
491.000000	0.247997
490.000000	0.243318
489.000000	0.240112
488.000000	0.234793
487.000000	0.225192
486.000000	0.216464
485.000000	0.208416
484.000000	0.199266
483.000000	0.189654
482.000000	0.174459
481.000000	0.158691
480.000000	0.152529
479.000000	0.152234
478.000000	0.157551
477.000000	0.162760
476.000000	0.166867
475.000000	0.170350
474.000000	0.171053
473.000000	0.169958
472.000000	0.170938
471.000000	0.172293
470.000000	0.174890
469.000000	0.179030
468.000000	0.185313
467.000000	0.190867
466.000000	0.195516
465.000000	0.201675
464.000000	0.207158
463.000000	0.213630
462.000000	0.221414
461.000000	0.229503
460.000000	0.235250
459.000000	0.237913
458.000000	0.242802
457.000000	0.244395
456.000000	0.244512
455.000000	0.243835
454.000000	0.246684
453.000000	0.246548
452.000000	0.244798
451.000000	0.239759
450.000000	0.236602
449.000000	0.236046
448.000000	0.233331
447.000000	0.229833
446.000000	0.232692
445.000000	0.230045
444.000000	0.216763
443.000000	0.195304
442.000000	0.189373
441.000000	0.194444
440.000000	0.195770
439.000000	0.195961
438.000000	0.196969
437.000000	0.197468
436.000000	0.199111
435.000000	0.198588
434.000000	0.192126
433.000000	0.194288
432.000000	0.193460
431.000000	0.191236
430.000000	0.189230
429.000000	0.190281
428.000000	0.191530
427.000000	0.190831
426.000000	0.188077
425.000000	0.185096
424.000000	0.184684
423.000000	0.185901
422.000000	0.186931
421.000000	0.185754
420.000000	0.184554
419.000000	0.180812
418.000000	0.180214
417.000000	0.181238
416.000000	0.181961
415.000000	0.181321
414.000000	0.180232
413.000000	0.181033
412.000000	0.177528
411.000000	0.176284
410.000000	0.172627
409.000000	0.175854
408.000000	0.178306
407.000000	0.182653
406.000000	0.180855
405.000000	0.174291
404.000000	0.173507
403.000000	0.176866
402.000000	0.174681
401.000000	0.174938
400.000000	0.177050
399.000000	0.179136
398.000000	0.175785
397.000000	0.178321
396.000000	0.177386
395.000000	0.172641
394.000000	0.178585
393.000000	0.179654
392.000000	0.180415
391.000000	0.179856
390.000000	0.178204
389.000000	0.178753
388.000000	0.179743
387.000000	0.178340
386.000000	0.183381
385.000000	0.185764
384.000000	0.188655
383.000000	0.192564
382.000000	0.188626
381.000000	0.192167
380.000000	0.197911
379.000000	0.191633
378.000000	0.000280
377.000000	-0.016243
376.000000	0.017769
375.000000	0.044723
374.000000	0.073346
373.000000	0.083914
372.000000	0.105108
371.000000	0.123180
370.000000	0.135855
369.000000	0.147651
368.000000	0.162355
367.000000	0.166788
366.000000	0.177962
365.000000	0.187760
364.000000	0.189367
363.000000	0.191446
362.000000	0.182415
361.000000	0.188781
360.000000	0.185181
359.000000	0.175706
358.000000	0.169436
357.000000	0.159103
356.000000	0.147109
355.000000	0.134151
354.000000	0.113522
353.000000	0.096525
352.000000	0.085128
351.000000	0.068237
350.000000	0.056190
349.000000	0.044579
348.000000	0.031863
347.000000	0.026799
346.000000	0.020044
345.000000	0.017574
344.000000	0.019132
343.000000	0.017666
342.000000	0.019421
341.000000	0.024038
340.000000	0.012776
339.000000	0.011638
338.000000	0.017920
337.000000	0.020411
336.000000	0.019360
335.000000	0.023908
334.000000	0.023034
333.000000	0.020076
332.000000	0.021624
331.000000	0.028319
330.000000	0.032494
329.000000	0.030401
328.000000	0.034830
327.000000	0.037163
326.000000	0.043094
325.000000	0.041799
