nm; %T
900.000000; 113.598300
899.000000; 110.377200
898.000000; 116.143900
897.000000; 114.598900
896.000000; 116.221300
895.000000; 114.804600
894.000000; 114.073500
893.000000; 110.478400
892.000000; 113.704200
891.000000; 112.670600
890.000000; 117.189600
889.000000; 113.211900
888.000000; 111.415500
887.000000; 112.973900
886.000000; 110.074900
885.000000; 117.291000
884.000000; 111.945600
883.000000; 111.950100
882.000000; 112.900300
881.000000; 113.676700
880.000000; 115.904000
879.000000; 114.575300
878.000000; 113.299300
877.000000; 119.079300
876.000000; 114.140900
875.000000; 113.454500
874.000000; 115.946100
873.000000; 117.068900
872.000000; 116.897800
871.000000; 113.454900
870.000000; 115.104800
869.000000; 116.018300
868.000000; 116.837700
867.000000; 115.699900
866.000000; 115.728600
865.000000; 115.501700
864.000000; 115.650900
863.000000; 115.845200
862.000000; 116.853200
861.000000; 116.704900
860.000000; 116.933700
859.000000; 116.911200
858.000000; 117.049800
857.000000; 117.370800
856.000000; 117.296200
855.000000; 117.597100
854.000000; 117.623100
853.000000; 117.684900
852.000000; 117.805900
851.000000; 117.133200
850.000000; 117.369600
849.000000; 118.065900
848.000000; 118.249200
847.000000; 118.346200
846.000000; 118.338900
845.000000; 118.030700
844.000000; 118.396800
843.000000; 118.884200
842.000000; 118.750000
841.000000; 118.305700
840.000000; 118.483000
839.000000; 118.740500
838.000000; 118.869100
837.000000; 118.864600
836.000000; 118.875200
835.000000; 118.621800
834.000000; 118.933200
833.000000; 118.927600
832.000000; 119.135300
831.000000; 119.240500
830.000000; 119.129400
829.000000; 119.246900
828.000000; 119.200500
827.000000; 119.087800
826.000000; 119.317000
825.000000; 119.376700
824.000000; 119.523800
823.000000; 119.596900
822.000000; 119.417000
821.000000; 119.343400
820.000000; 119.377400
819.000000; 119.557900
818.000000; 119.480300
817.000000; 119.486500
816.000000; 119.604100
815.000000; 119.588900
814.000000; 119.249300
813.000000; 119.384000
812.000000; 119.406000
811.000000; 119.470500
810.000000; 119.276600
809.000000; 119.317300
808.000000; 119.267900
807.000000; 119.334700
806.000000; 119.294000
805.000000; 119.147600
804.000000; 119.106400
803.000000; 119.055300
802.000000; 119.112800
801.000000; 119.184800
800.000000; 119.318500
799.000000; 119.320800
798.000000; 119.004800
797.000000; 119.201000
796.000000; 119.283200
795.000000; 118.967400
794.000000; 118.969000
793.000000; 118.876000
792.000000; 118.796700
791.000000; 118.758200
790.000000; 118.788000
789.000000; 118.695700
788.000000; 118.529700
787.000000; 118.633600
786.000000; 118.667900
785.000000; 118.776600
784.000000; 118.847400
783.000000; 118.795700
782.000000; 118.679800
781.000000; 118.566900
780.000000; 118.530800
779.000000; 118.483600
778.000000; 118.365600
777.000000; 118.297300
776.000000; 118.431200
775.000000; 118.299100
774.000000; 118.065200
773.000000; 118.010800
772.000000; 118.107600
771.000000; 118.155100
770.000000; 118.081500
769.000000; 117.963200
768.000000; 117.862800
767.000000; 117.829500
766.000000; 117.919100
765.000000; 117.783600
764.000000; 117.766200
763.000000; 117.902600
762.000000; 117.851900
761.000000; 117.724700
760.000000; 117.652300
759.000000; 117.528000
758.000000; 117.509300
757.000000; 117.475300
756.000000; 117.366500
755.000000; 117.541000
754.000000; 117.430600
753.000000; 117.349400
752.000000; 117.265200
751.000000; 117.137800
750.000000; 117.130200
749.000000; 117.127700
748.000000; 117.033400
747.000000; 116.973100
746.000000; 116.967600
745.000000; 116.949000
744.000000; 116.905200
743.000000; 116.849900
742.000000; 116.888800
741.000000; 116.928300
740.000000; 116.874100
739.000000; 116.908700
738.000000; 116.874400
737.000000; 116.689700
736.000000; 116.607400
735.000000; 116.665900
734.000000; 116.657800
733.000000; 116.660800
732.000000; 116.614400
731.000000; 116.443700
730.000000; 116.500800
729.000000; 116.405500
728.000000; 116.374800
727.000000; 116.343900
726.000000; 116.391300
725.000000; 116.294000
724.000000; 116.199600
723.000000; 116.226000
722.000000; 116.098300
721.000000; 116.054800
720.000000; 116.014500
719.000000; 115.917700
718.000000; 115.966800
717.000000; 115.987600
716.000000; 115.855300
715.000000; 115.900100
714.000000; 115.912900
713.000000; 115.890600
712.000000; 115.799500
711.000000; 115.860300
710.000000; 115.806800
709.000000; 115.700500
708.000000; 115.711700
707.000000; 115.579700
706.000000; 115.572900
705.000000; 115.608000
704.000000; 115.531100
703.000000; 115.670100
702.000000; 115.603700
701.000000; 115.495500
700.000000; 115.493100
699.000000; 115.451900
698.000000; 115.393000
697.000000; 115.449200
696.000000; 115.398100
695.000000; 115.374500
694.000000; 115.323600
693.000000; 115.364200
692.000000; 115.211000
691.000000; 115.242300
690.000000; 115.312900
689.000000; 115.441300
688.000000; 115.386400
687.000000; 115.308500
686.000000; 115.395600
685.000000; 115.238100
684.000000; 115.260000
683.000000; 115.289300
682.000000; 115.174000
681.000000; 115.198000
680.000000; 115.113600
679.000000; 115.199200
678.000000; 115.078200
677.000000; 114.981900
676.000000; 115.127000
675.000000; 114.958000
674.000000; 115.010000
673.000000; 115.052600
672.000000; 115.029300
671.000000; 114.864300
670.000000; 114.908600
669.000000; 114.913100
668.000000; 114.985100
667.000000; 114.978900
666.000000; 114.906700
665.000000; 114.914600
664.000000; 114.782100
663.000000; 114.812600
662.000000; 114.844200
661.000000; 114.830400
660.000000; 114.848000
659.000000; 114.781000
658.000000; 114.838000
657.000000; 114.741300
656.000000; 114.681500
655.000000; 114.718900
654.000000; 114.691800
653.000000; 114.690600
652.000000; 114.745500
651.000000; 114.752400
650.000000; 114.572500
649.000000; 114.558200
648.000000; 114.555600
647.000000; 114.598700
646.000000; 114.571300
645.000000; 114.528400
644.000000; 114.526200
643.000000; 114.506100
642.000000; 114.591700
641.000000; 114.517800
640.000000; 114.403100
639.000000; 114.414100
638.000000; 114.411900
637.000000; 114.450400
636.000000; 114.466400
635.000000; 114.419800
634.000000; 114.332700
633.000000; 114.346200
632.000000; 114.425900
631.000000; 114.320300
630.000000; 114.384700
629.000000; 114.258100
628.000000; 114.355400
627.000000; 114.245700
626.000000; 114.339000
625.000000; 114.210400
624.000000; 114.250800
623.000000; 114.236900
622.000000; 114.260000
621.000000; 114.249800
620.000000; 114.173500
619.000000; 114.215100
618.000000; 114.251000
617.000000; 114.158200
616.000000; 114.216900
615.000000; 114.215300
614.000000; 114.210400
613.000000; 114.189200
612.000000; 114.132900
611.000000; 114.137400
610.000000; 114.148000
609.000000; 114.048600
608.000000; 114.070100
607.000000; 114.096400
606.000000; 114.089800
605.000000; 114.046500
604.000000; 114.112300
603.000000; 114.109800
602.000000; 114.069400
601.000000; 114.082100
600.000000; 114.071500
599.000000; 114.094200
598.000000; 114.050700
597.000000; 114.054800
596.000000; 114.021900
595.000000; 114.010500
594.000000; 114.013900
593.000000; 114.001400
592.000000; 113.984400
591.000000; 114.001600
590.000000; 114.046300
589.000000; 114.041100
588.000000; 114.047700
587.000000; 114.039700
586.000000; 114.041000
585.000000; 114.025300
584.000000; 113.978700
583.000000; 114.000000
582.000000; 113.986900
581.000000; 114.041700
580.000000; 113.985700
579.000000; 114.016400
578.000000; 113.983600
577.000000; 114.060300
576.000000; 113.999300
575.000000; 113.963200
574.000000; 113.959400
573.000000; 113.967500
572.000000; 113.974700
571.000000; 114.018500
570.000000; 114.058600
569.000000; 114.047500
568.000000; 113.976900
567.000000; 113.933700
566.000000; 113.914200
565.000000; 113.888800
564.000000; 113.884600
563.000000; 113.968900
562.000000; 114.065500
561.000000; 114.211700
560.000000; 114.211300
559.000000; 114.203300
558.000000; 114.230300
557.000000; 114.219500
556.000000; 114.259700
555.000000; 114.227900
554.000000; 114.218900
553.000000; 114.256100
552.000000; 114.206600
551.000000; 114.220800
550.000000; 114.248500
549.000000; 114.266800
548.000000; 114.266200
547.000000; 114.312200
546.000000; 114.347700
545.000000; 114.298400
544.000000; 114.314400
543.000000; 114.339500
542.000000; 114.363200
541.000000; 114.394200
540.000000; 114.395600
539.000000; 114.438400
538.000000; 114.502900
537.000000; 114.475900
536.000000; 114.465000
535.000000; 114.486100
534.000000; 114.545700
533.000000; 114.572300
532.000000; 114.595500
531.000000; 114.604200
530.000000; 114.616000
529.000000; 114.637900
528.000000; 114.676500
527.000000; 114.699900
526.000000; 114.694100
525.000000; 114.708100
524.000000; 114.750700
523.000000; 114.769000
522.000000; 114.770500
521.000000; 114.773900
520.000000; 114.779600
519.000000; 114.754000
518.000000; 114.716200
517.000000; 114.663400
516.000000; 114.596000
515.000000; 114.541300
514.000000; 114.431800
513.000000; 114.308900
512.000000; 114.187200
511.000000; 114.030300
510.000000; 113.858200
509.000000; 113.689700
508.000000; 113.499200
507.000000; 113.304700
506.000000; 113.104000
505.000000; 112.920500
504.000000; 112.796500
503.000000; 112.680900
502.000000; 112.591000
501.000000; 112.524800
500.000000; 112.472000
499.000000; 112.423400
498.000000; 112.438700
497.000000; 112.451500
496.000000; 112.476500
495.000000; 112.584900
494.000000; 112.644000
493.000000; 112.704400
492.000000; 112.729900
491.000000; 112.809200
490.000000; 112.912000
489.000000; 112.971500
488.000000; 113.053800
487.000000; 113.138900
486.000000; 113.263500
485.000000; 113.417100
484.000000; 113.525800
483.000000; 113.713100
482.000000; 114.030900
481.000000; 114.239800
480.000000; 114.377700
479.000000; 114.383000
478.000000; 114.258300
477.000000; 114.212900
476.000000; 114.192700
475.000000; 114.170900
474.000000; 114.093100
473.000000; 114.047800
472.000000; 114.041000
471.000000; 114.007200
470.000000; 113.951300
469.000000; 113.862700
468.000000; 113.756200
467.000000; 113.637500
466.000000; 113.537100
465.000000; 113.421200
464.000000; 113.255000
463.000000; 113.130700
462.000000; 112.955800
461.000000; 112.853900
460.000000; 112.723600
459.000000; 112.618700
458.000000; 112.607600
457.000000; 112.503000
456.000000; 112.526200
455.000000; 112.503500
454.000000; 112.458700
453.000000; 112.530600
452.000000; 112.571200
451.000000; 112.564300
450.000000; 112.540700
449.000000; 112.516000
448.000000; 112.579700
447.000000; 112.617900
446.000000; 112.573700
445.000000; 112.661200
444.000000; 112.853900
443.000000; 113.002500
442.000000; 112.929800
441.000000; 112.929700
440.000000; 112.839400
439.000000; 112.806200
438.000000; 112.821200
437.000000; 112.753900
436.000000; 112.681800
435.000000; 112.789000
434.000000; 112.641200
433.000000; 112.711100
432.000000; 112.676600
431.000000; 112.593800
430.000000; 112.544000
429.000000; 112.526600
428.000000; 112.517100
427.000000; 112.440500
426.000000; 112.455900
425.000000; 112.323200
424.000000; 112.315100
423.000000; 112.305700
422.000000; 112.284700
421.000000; 112.167200
420.000000; 112.116100
419.000000; 112.056300
418.000000; 111.954500
417.000000; 111.885100
416.000000; 111.740100
415.000000; 111.535700
414.000000; 111.513200
413.000000; 111.273700
412.000000; 111.102500
411.000000; 110.932000
410.000000; 110.712300
409.000000; 110.562400
408.000000; 110.225800
407.000000; 109.975400
406.000000; 109.650000
405.000000; 109.398900
404.000000; 109.166700
403.000000; 108.847400
402.000000; 108.652500
401.000000; 108.328000
400.000000; 108.046700
399.000000; 107.755300
398.000000; 107.543400
397.000000; 107.316300
396.000000; 107.011000
395.000000; 107.003800
394.000000; 106.699300
393.000000; 106.480800
392.000000; 106.302500
391.000000; 106.151300
390.000000; 106.043500
389.000000; 105.932500
388.000000; 105.891400
387.000000; 105.671000
386.000000; 105.683500
385.000000; 105.517800
384.000000; 105.333100
383.000000; 105.322700
382.000000; 105.269300
381.000000; 105.177400
380.000000; 104.977800
379.000000; 105.557500
378.000000; 106.713800
377.000000; 106.710500
376.000000; 106.519500
375.000000; 106.141300
374.000000; 105.813300
373.000000; 105.616200
372.000000; 105.561300
371.000000; 105.248800
370.000000; 105.283700
369.000000; 104.977000
368.000000; 104.902900
367.000000; 104.838900
366.000000; 104.643200
365.000000; 104.660500
364.000000; 104.550700
363.000000; 104.405800
362.000000; 104.367000
361.000000; 104.101100
360.000000; 104.046900
359.000000; 104.201400
358.000000; 104.078600
357.000000; 103.819300
356.000000; 103.906600
355.000000; 103.780700
354.000000; 103.709700
353.000000; 103.694000
352.000000; 103.464200
351.000000; 103.548200
350.000000; 103.399500
349.000000; 103.459900
348.000000; 103.338300
347.000000; 103.322600
346.000000; 103.242500
345.000000; 103.166000
344.000000; 103.193700
343.000000; 103.174500
342.000000; 103.124900
341.000000; 102.943800
340.000000; 102.892900
339.000000; 102.838100
338.000000; 102.825200
337.000000; 102.731900
336.000000; 102.782600
335.000000; 102.733900
334.000000; 102.614300
333.000000; 102.500200
332.000000; 102.502500
331.000000; 102.474100
330.000000; 102.364000
329.000000; 102.150800
328.000000; 102.196800
327.000000; 102.143900
326.000000; 102.184000
325.000000; 102.097200
